Ultrasonic distance measurement system
(4 ultrasonic channels + 4 ADC inputs)

Frequency: 400 Hz
Period:     10 sec

[   A     B     C     D     In1   In2   In3   In4  ]

5188,44 0 0 0 25189 18493 0 108 
5188,52 0 0 0 24613 18528 0 108 
5188,75 0 0 0 24330 18554 0 108 
5189,45 0 0 0 24253 18565 0 106 
5190,27 0 0 0 24456 18575 0 107 
5191,55 0 0 0 25133 18586 0 106 
5191,67 0 0 0 25658 18620 0 108 
5191,25 0 0 0 25771 18598 0 107 
5190,88 0 0 0 25356 18607 0 106 
5191,13 0 0 0 24806 18638 0 107 
5191,96 0 0 0 24624 18611 0 106 
5191,61 0 0 0 24914 18616 0 107 
5191,32 0 0 0 25244 18599 0 107 
5191 0 0 0 25561 18579 0 108 
5190,88 0 0 0 25579 18566 0 109 
5191,87 0 0 0 25397 18551 0 106 
5191,93 0 0 0 25042 18559 0 107 
5191,61 0 0 0 24621 18563 0 107 
5191,23 0 0 0 24275 18560 0 109 
5191,08 0 0 0 24288 18549 0 107 
5191,75 0 0 0 24498 18568 0 107 
5191,98 0 0 0 25021 18569 0 108 
5191,75 0 0 0 25261 18604 0 106 
5190,55 0 0 0 25096 18615 0 107 
5189,53 0 0 0 24629 18602 0 108 
5189,56 0 0 0 24079 18637 0 107 
5189,67 0 0 0 23772 18633 0 105 
5189,91 0 0 0 24116 18650 0 107 
5189,09 0 0 0 24764 18640 0 106 
5187,96 0 0 0 25270 18669 0 107 
5186,82 0 0 0 25326 18630 0 109 
5186,5 0 0 0 24940 18638 0 108 
5186,73 0 0 0 24478 18617 0 110 
5186,53 0 0 0 24336 18623 0 107 
5186,06 0 0 0 24306 18586 0 108 
5185,46 0 0 0 24205 18583 0 108 
5185,43 0 0 0 24846 18610 0 107 
5186,06 0 0 0 25879 18592 0 106 
5186,43 0 0 0 26804 18612 0 108 
5186,74 0 0 0 27790 18598 0 107 
5185,91 0 0 0 29192 18600 0 106 
5186,14 0 0 0 31030 18596 0 107 
5186,71 0 0 0 33790 18632 0 108 
5187,86 0 0 0 37144 18608 0 106 
5188,31 0 0 0 40438 18644 0 107 
5188,32 0 0 0 42859 18639 0 106 
5188,22 0 0 0 43778 18652 0 106 
5187,95 0 0 0 42828 18707 0 107 
5188,86 0 0 0 40913 18710 0 108 
5189,6 0 0 0 38268 18749 0 107 
5189,73 0 0 0 34963 18736 0 107 
5189,31 0 0 0 31634 18788 0 108 
5189,1 0 0 0 28774 18784 0 107 
5189,97 0 0 0 26447 18803 0 108 
5191,13 0 0 0 24545 18822 0 108 
5191,95 0 0 0 23030 18821 0 107 
5191,68 0 0 0 21876 18840 0 107 
5190,97 0 0 0 20973 18866 0 108 
5191,36 0 0 0 20521 18866 0 108 
5192,18 0 0 0 21057 18904 0 108 
5192,8 0 0 0 21715 18906 0 106 
5192,56 0 0 0 22305 18911 0 108 
5191,57 0 0 0 22690 18913 0 108 
5190,78 0 0 0 22651 18892 0 107 
5190,72 0 0 0 22508 18898 0 106 
5191,55 0 0 0 22047 18908 0 108 
5191,58 0 0 0 21765 18888 0 106 
5190,87 0 0 0 22000 18916 0 107 
5189,95 0 0 0 22282 18918 0 108 
5189,23 0 0 0 22665 18912 0 107 
5189,53 0 0 0 22929 18920 0 108 
5189,66 0 0 0 22918 18934 0 107 
5189,54 0 0 0 22526 18960 0 106 
5188,43 0 0 0 21948 18938 0 106 
5187,66 0 0 0 21746 18925 0 108 
5187,34 0 0 0 21979 18931 0 106 
5187,48 0 0 0 22547 18919 0 111 
5188,35 0 0 0 23209 18946 0 107 
5188,05 0 0 0 23594 18948 0 108 
5187,27 0 0 0 23337 18958 0 107 
5185,91 0 0 0 23064 18976 0 105 
5185,56 0 0 0 22840 18979 0 109 
5185,71 0 0 0 22576 18977 0 108 
5185,7 0 0 0 22576 18959 0 107 
5185,04 0 0 0 23100 18965 0 109 
5183,79 0 0 0 23720 18971 0 108 
5183,08 0 0 0 24243 18962 0 106 
5182,74 0 0 0 24122 18936 0 107 
5182,92 0 0 0 23454 18962 0 108 
5182,44 0 0 0 22855 18940 0 107 
5180,59 0 0 0 22424 18928 0 107 
5179,56 0 0 0 22069 18913 0 108 
5178,26 0 0 0 22394 18930 0 107 
5178,07 0 0 0 23472 18916 0 107 
5177,18 0 0 0 24398 18900 0 106 
5175,72 0 0 0 24624 18884 0 108 
5173,38 0 0 0 24236 18889 0 104 
5170,93 0 0 0 23813 18891 0 108 
5169,57 0 0 0 23435 18918 0 107 
5167,59 0 0 0 23563 18903 0 110 
5166,21 0 0 0 23904 18896 0 106 
5164 0 0 0 24256 18895 0 106 
5161,4 0 0 0 24606 18873 0 108 
5159,5 0 0 0 24624 18877 0 107 
5157,9 0 0 0 24204 18881 0 107 
5157,22 0 0 0 23730 18884 0 107 
5156,45 0 0 0 23366 18870 0 107 
5155,11 0 0 0 23506 18869 0 107 
5153,65 0 0 0 24155 18916 0 107 
5152,58 0 0 0 24823 18940 0 106 
5153,16 0 0 0 25278 18945 0 106 
5152,64 0 0 0 25166 18984 0 109 
5151,82 0 0 0 24544 19001 0 102 
5150,12 0 0 0 24115 19074 0 107 
5148,92 0 0 0 24059 19104 0 106 
5148,98 0 0 0 24065 19152 0 107 
5149,14 0 0 0 24288 19211 0 106 
5148,95 0 0 0 24780 19283 0 105 
5148,27 0 0 0 25256 19363 0 107 
5147,65 0 0 0 25464 19420 0 107 
5147,69 0 0 0 24973 19482 0 105 
5148,27 0 0 0 24151 19585 0 108 
5149,17 0 0 0 23682 19674 0 107 
5149,63 0 0 0 23794 19768 0 106 
5150,14 0 0 0 24461 19868 0 107 
5150,01 0 0 0 24964 19955 0 108 
5150,97 0 0 0 25477 20064 0 108 
5152,02 0 0 0 25702 20137 0 106 
5153,63 0 0 0 25662 20240 0 108 
5154,62 0 0 0 25349 20324 0 108 
5155,17 0 0 0 25063 20401 0 107 
5156,06 0 0 0 25031 20493 0 106 
5157,39 0 0 0 25324 20571 0 107 
5159,04 0 0 0 25521 20653 0 106 
5160,29 0 0 0 25682 20708 0 107 
5160,83 0 0 0 25792 20784 0 107 
5162,36 0 0 0 25623 20808 0 107 
5164,03 0 0 0 25334 20898 0 106 
5166,02 0 0 0 25368 20988 0 108 
5167,1 0 0 0 25835 21034 0 107 
5167,64 0 0 0 26524 21105 0 108 
5168,51 0 0 0 27247 21175 0 108 
5169,81 0 0 0 27672 21210 0 108 
5171,31 0 0 0 27698 21280 0 107 
5172,05 0 0 0 27190 21340 0 106 
5171,86 0 0 0 26522 21424 0 108 
5172,47 0 0 0 26161 21463 0 108 
5172,61 0 0 0 26567 21538 0 108 
5173,26 0 0 0 27168 21568 0 109 
5173,68 0 0 0 28001 21622 0 107 
5174,15 0 0 0 28564 21686 0 107 
5173,86 0 0 0 28607 21712 0 106 
5173,14 0 0 0 28025 21768 0 106 
5173,11 0 0 0 27146 21782 0 107 
5173,21 0 0 0 27006 21831 0 106 
5173,64 0 0 0 26978 21884 0 109 
5172,34 0 0 0 27370 21889 0 106 
5170,87 0 0 0 28386 21952 0 107 
5169,92 0 0 0 29012 21971 0 107 
5169,47 0 0 0 28875 21983 0 109 
5169,67 0 0 0 28151 22016 0 107 
5169,13 0 0 0 27470 22032 0 106 
5167,86 0 0 0 27363 22056 0 107 
5166,38 0 0 0 27762 22061 0 108 
5164,63 0 0 0 28294 22115 0 106 
5164,25 0 0 0 28584 22128 0 107 
5163,7 0 0 0 28744 22207 0 106 
5163,52 0 0 0 28571 22231 0 106 
5162,25 0 0 0 27680 22259 0 107 
5160,75 0 0 0 26554 22346 0 106 
5159,58 0 0 0 25949 22371 0 106 
5158,9 0 0 0 25861 22446 0 106 
5158,93 0 0 0 25863 22510 0 107 
5158,44 0 0 0 26350 22588 0 107 
5157,86 0 0 0 26775 22662 0 107 
5156,99 0 0 0 26664 22740 0 106 
5155,93 0 0 0 26000 22838 0 106 
5156,12 0 0 0 24962 22937 0 107 
5156,39 0 0 0 24562 23004 0 107 
5156,33 0 0 0 25020 23083 0 108 
5155,63 0 0 0 25276 23185 0 106 
5154,62 0 0 0 25402 23270 0 108 
5154,22 0 0 0 25279 23371 0 108 
5154,42 0 0 0 24864 23449 0 106 
5155,28 0 0 0 24360 23548 0 106 
5155,08 0 0 0 23828 23614 0 105 
5154,49 0 0 0 23317 23652 0 108 
5153,67 0 0 0 23410 23725 0 108 
5153,1 0 0 0 23693 23772 0 108 
5153,18 0 0 0 24031 23840 0 107 
5153,92 0 0 0 24318 23878 0 106 
5154,18 0 0 0 24182 23893 0 107 
5153,84 0 0 0 23795 23908 0 107 
5153,58 0 0 0 23229 23922 0 107 
5153,45 0 0 0 22821 23966 0 105 
5154,19 0 0 0 22832 23950 0 109 
5154,94 0 0 0 23427 23987 0 106 
5155,49 0 0 0 24034 23954 0 106 
5155,6 0 0 0 24464 23984 0 107 
5155,51 0 0 0 24452 23952 0 106 
5156,35 0 0 0 23844 23965 0 105 
5157,28 0 0 0 23114 23948 0 107 
5158,24 0 0 0 23026 23941 0 108 
5159,07 0 0 0 23180 23883 0 107 
5159,07 0 0 0 23797 23898 0 108 
5159,24 0 0 0 24636 23871 0 107 
5160 0 0 0 25045 23846 0 107 
5161,49 0 0 0 24830 23794 0 107 
5162,76 0 0 0 24324 23748 0 107 
5163,67 0 0 0 23650 23697 0 106 
5163,88 0 0 0 23085 23636 0 107 
5163,68 0 0 0 23154 23565 0 106 
5164,19 0 0 0 23604 23481 0 107 
5164,46 0 0 0 24302 23398 0 108 
5165,18 0 0 0 24782 23311 0 106 
5164,82 0 0 0 24944 23204 0 106 
5164,02 0 0 0 24544 23111 0 106 
5163,13 0 0 0 23734 23008 0 106 
5162,57 0 0 0 23208 22908 0 107 
5162,81 0 0 0 23082 22805 0 107 
5162,58 0 0 0 23624 22672 0 107 
5162,24 0 0 0 24284 22554 0 107 
5161,11 0 0 0 24490 22469 0 107 
5160,25 0 0 0 24416 22307 0 107 
5159,54 0 0 0 24195 22196 0 106 
5159,3 0 0 0 23796 22078 0 107 
5159,21 0 0 0 23430 21960 0 109 
5158,54 0 0 0 23544 21848 0 106 
5157,71 0 0 0 24006 21752 0 107 
5156,52 0 0 0 24330 21620 0 106 
5155,92 0 0 0 24597 21507 0 107 
5155,83 0 0 0 24857 21374 0 107 
5154,76 0 0 0 24752 21250 0 107 
5153,72 0 0 0 24358 21140 0 105 
5151,88 0 0 0 24107 21059 0 106 
5150,56 0 0 0 24137 20929 0 107 
5149,75 0 0 0 24432 20827 0 107 
5149,32 0 0 0 24983 20723 0 107 
5148,74 0 0 0 25067 20620 0 104 
5147,17 0 0 0 24838 20541 0 107 
5145,96 0 0 0 24479 20438 0 107 
5144,72 0 0 0 23814 20357 0 109 
5144,57 0 0 0 23484 20283 0 106 
5144,41 0 0 0 23848 20212 0 108 
5144,51 0 0 0 24424 20155 0 106 
5143,82 0 0 0 24991 20078 0 109 
5142,92 0 0 0 25262 20002 0 108 
5142,33 0 0 0 25263 19964 0 107 
5142,06 0 0 0 24948 19901 0 108 
5142,46 0 0 0 24595 19840 0 107 
5142,25 0 0 0 24278 19798 0 106 
5141,6 0 0 0 24191 19744 0 107 
5140,93 0 0 0 24728 19698 0 108 
5140,01 0 0 0 25464 19659 0 107 
5140,02 0 0 0 25933 19608 0 107 
5139,84 0 0 0 25962 19559 0 107 
5140,38 0 0 0 25172 19506 0 107 
5140,21 0 0 0 24203 19519 0 107 
5139,5 0 0 0 23623 19432 0 107 
5138,57 0 0 0 23870 19396 0 108 
5138,14 0 0 0 24576 19371 0 109 
5138,65 0 0 0 25274 19334 0 108 
5139,07 0 0 0 25815 19293 0 105 
5139,21 0 0 0 25815 19267 0 106 
5138,91 0 0 0 25507 19222 0 108 
5138,64 0 0 0 24779 19190 0 107 
5138,71 0 0 0 24488 19173 0 106 
5139,17 0 0 0 24490 19158 0 106 
5139,48 0 0 0 24910 19108 0 106 
5138,9 0 0 0 25384 19114 0 108 
5138,25 0 0 0 25618 19078 0 108 
5138,2 0 0 0 25589 19071 0 107 
5138,5 0 0 0 25181 19044 0 109 
5139,23 0 0 0 24618 18996 0 107 
5139,08 0 0 0 24404 18995 0 106 
5138,58 0 0 0 24612 18978 0 108 
5137,7 0 0 0 25201 18940 0 107 
5137,65 0 0 0 25630 18922 0 107 
5138,13 0 0 0 25583 18904 0 106 
5138,58 0 0 0 25467 18870 0 107 
5138,82 0 0 0 25118 18816 0 107 
5138,11 0 0 0 24717 18794 0 107 
5137,85 0 0 0 24562 18777 0 108 
5137,69 0 0 0 24524 18736 0 106 
5138,55 0 0 0 24890 18718 0 107 
5139,49 0 0 0 25773 18687 0 107 
5139,33 0 0 0 26504 18656 0 107 
5138,79 0 0 0 26320 18630 0 108 
5138,28 0 0 0 25578 18620 0 106 
5138,86 0 0 0 24752 18599 0 109 
5139,53 0 0 0 24322 18563 0 107 
5140,64 0 0 0 24654 18556 0 110 
5141,35 0 0 0 25020 18534 0 106 
5141,12 0 0 0 25621 18508 0 108 
5141,19 0 0 0 26106 18491 0 106 
5141,36 0 0 0 25853 18470 0 106 
5142,48 0 0 0 25114 18475 0 106 
5143,4 0 0 0 24472 18451 0 108 
5144,25 0 0 0 24008 18456 0 108 
5144,4 0 0 0 24036 18422 0 106 
5143,82 0 0 0 24770 18414 0 106 
5144,23 0 0 0 25394 18393 0 106 
5144,78 0 0 0 25904 18400 0 108 
5145,91 0 0 0 25810 18378 0 107 
5146,79 0 0 0 25403 18388 0 107 
5147,37 0 0 0 25032 18354 0 105 
5147,67 0 0 0 24720 18340 0 108 
5147,68 0 0 0 24669 18332 0 108 
5148,34 0 0 0 24952 18281 0 106 
5149,05 0 0 0 25278 18262 0 108 
5150,21 0 0 0 25686 18260 0 107 
5150,85 0 0 0 25886 18246 0 107 
5151,38 0 0 0 25574 18248 0 107 
5151,84 0 0 0 24933 18214 0 108 
5151,95 0 0 0 24394 18222 0 108 
5153,06 0 0 0 24259 18230 0 106 
5154,16 0 0 0 24416 18230 0 105 
5154,98 0 0 0 24976 18230 0 106 
5155,4 0 0 0 25580 18254 0 106 
5154,86 0 0 0 25929 18248 0 106 
5155,16 0 0 0 25902 18293 0 107 
5155,25 0 0 0 25456 18290 0 106 
5156,03 0 0 0 24866 18322 0 106 
5156,6 0 0 0 24428 18348 0 105 
5156,69 0 0 0 24923 18334 0 109 
5157,04 0 0 0 25321 18355 0 106 
5156,68 0 0 0 25713 18382 0 106 
5156,85 0 0 0 25844 18344 0 106 
5157,14 0 0 0 25640 18420 0 106 
5158,32 0 0 0 25187 18378 0 108 
5159,08 0 0 0 24680 18392 0 107 
5158,97 0 0 0 24452 18390 0 107 
5158,87 0 0 0 24744 18388 0 107 
5158,34 0 0 0 25489 18400 0 106 
5158,71 0 0 0 26097 18398 0 106 
5159,11 0 0 0 26144 18398 0 106 
5159,6 0 0 0 25850 18426 0 108 
5159,59 0 0 0 25387 18420 0 107 
5159,07 0 0 0 24957 18490 0 108 
5159,03 0 0 0 24897 18471 0 108 
5159,27 0 0 0 24942 18501 0 105 
5159,99 0 0 0 25330 18508 0 106 
5160,45 0 0 0 25513 18498 0 107 
5160,1 0 0 0 25560 18548 0 108 
5159,74 0 0 0 25305 18542 0 106 
5159,21 0 0 0 24854 18567 0 106 
5159,42 0 0 0 24790 18572 0 108 
5159,75 0 0 0 24882 18573 0 107 
5160,18 0 0 0 25321 18581 0 108 
5160,21 0 0 0 26090 18571 0 107 
5159,75 0 0 0 26575 18558 0 107 
5159,17 0 0 0 26210 18562 0 107 
5158,21 0 0 0 25625 18561 0 106 
5157,86 0 0 0 25080 18542 0 108 
5157,58 0 0 0 24726 18510 0 106 
5157,71 0 0 0 24785 18512 0 109 
5157,83 0 0 0 25058 18507 0 107 
5157,02 0 0 0 25421 18493 0 107 
5156,24 0 0 0 26081 18470 0 107 
5155,2 0 0 0 26424 18435 0 107 
5154,92 0 0 0 26090 18456 0 107 
5155,06 0 0 0 25439 18441 0 110 
5155,15 0 0 0 25045 18439 0 106 
5155,27 0 0 0 25494 18420 0 107 
5154,52 0 0 0 25984 18425 0 107 
5154,29 0 0 0 26368 18423 0 107 
5153,48 0 0 0 26690 18447 0 107 
5154,07 0 0 0 26553 18443 0 106 
5154,65 0 0 0 25846 18479 0 106 
5155,17 0 0 0 25616 18477 0 107 
5155 0 0 0 25586 18492 0 107 
5154,38 0 0 0 25476 18507 0 107 
5154,41 0 0 0 25360 18507 0 107 
5154,59 0 0 0 25755 18521 0 109 
5155,75 0 0 0 26093 18547 0 108 
5156,03 0 0 0 26168 18525 0 109 
5156,03 0 0 0 25888 18535 0 107 
5155,54 0 0 0 25266 18507 0 107 
5155,44 0 0 0 24853 18538 0 106 
5156,17 0 0 0 24956 18528 0 108 
5157,24 0 0 0 25219 18526 0 108 
5158,04 0 0 0 25584 18501 0 108 
5157,91 0 0 0 26214 18502 0 105 
5157,61 0 0 0 26408 18509 0 105 
5157,92 0 0 0 26314 18506 0 105 
5158,56 0 0 0 25854 18507 0 106 
5159,33 0 0 0 25442 18500 0 110 
5159,31 0 0 0 25106 18511 0 107 
5159,17 0 0 0 25208 18496 0 107 
5158,97 0 0 0 25650 18501 0 107 
5159,56 0 0 0 25981 18531 0 108 
5160,54 0 0 0 25910 18524 0 107 
5161,23 0 0 0 25690 18554 0 108 
5161,57 0 0 0 25318 18542 0 108 
5161,1 0 0 0 24984 18536 0 107 
5160,89 0 0 0 25134 18550 0 106 
5160,89 0 0 0 25302 18512 0 110 
5161,52 0 0 0 25667 18516 0 107 
5162,19 0 0 0 25977 18503 0 105 
5162,02 0 0 0 25960 18499 0 107 
5161,47 0 0 0 25604 18497 0 106 
5160,78 0 0 0 25156 18505 0 107 
5160,79 0 0 0 24708 18515 0 107 
5160,89 0 0 0 24432 18510 0 108 
5161,25 0 0 0 24449 18528 0 107 
5160,87 0 0 0 25080 18544 0 108 
5160,25 0 0 0 25682 18543 0 105 
5159,75 0 0 0 25896 18558 0 107 
5159,62 0 0 0 25525 18530 0 107 
5159,98 0 0 0 25218 18572 0 105 
5160,09 0 0 0 25424 18568 0 107 
5160,31 0 0 0 25480 18573 0 106 
5159,72 0 0 0 25345 18600 0 106 
5159,22 0 0 0 25486 18597 0 107 
5158,81 0 0 0 25872 18598 0 107 
5158,45 0 0 0 26037 18600 0 106 
5158,99 0 0 0 25941 18643 0 110 
5159,12 0 0 0 25476 18652 0 107 
5158,92 0 0 0 25094 18664 0 106 
5158,27 0 0 0 24842 18674 0 107 
5157,92 0 0 0 24947 18698 0 107 
5158,39 0 0 0 25774 18694 0 108 
5158,94 0 0 0 26944 18733 0 107 
5159,51 0 0 0 27942 18728 0 106 
5159,17 0 0 0 28903 18756 0 106 
5158,81 0 0 0 30441 18774 0 106 
5159,09 0 0 0 33235 18770 0 107 
5159,98 0 0 0 36739 18759 0 107 
5161,12 0 0 0 40004 18764 0 106 
5161,7 0 0 0 42419 18749 0 106 
5162,41 0 0 0 43709 18765 0 108 
5162,55 0 0 0 43431 18748 0 107 
5163,35 0 0 0 41921 18716 0 108 
5164,49 0 0 0 39419 18732 0 108 
5165,91 0 0 0 35984 18724 0 107 
5166,45 0 0 0 32552 18688 0 106 
5166,06 0 0 0 29526 18687 0 107 
5166,47 0 0 0 26866 18719 0 108 
5167,62 0 0 0 24863 18711 0 108 
5169,25 0 0 0 23261 18700 0 107 
5170,33 0 0 0 22214 18718 0 107 
5170,49 0 0 0 21508 18741 0 107 
5170,02 0 0 0 21165 18731 0 106 
5170,13 0 0 0 21450 18749 0 106 
5171,54 0 0 0 22210 18772 0 107 
5172,92 0 0 0 22777 18779 0 107 
5173,73 0 0 0 23092 18778 0 107 
5173,77 0 0 0 23391 18772 0 108 
5173,74 0 0 0 23244 18784 0 105 
5174,28 0 0 0 23150 18814 0 106 
5175,1 0 0 0 22848 18820 0 105 
5176,21 0 0 0 22440 18843 0 107 
5176,3 0 0 0 22410 18855 0 106 
5176,33 0 0 0 22901 18855 0 107 
5175,92 0 0 0 23453 18887 0 108 
5176,69 0 0 0 23622 18873 0 106 
5177,81 0 0 0 23460 18891 0 107 
5178,38 0 0 0 22986 18919 0 106 
5178,68 0 0 0 22663 18886 0 107 
5178,1 0 0 0 22712 18906 0 108 
5178,39 0 0 0 22884 18925 0 106 
5178,83 0 0 0 23205 18934 0 110 
5179,33 0 0 0 23726 18937 0 112 
5179,34 0 0 0 23864 18932 0 106 
5178,89 0 0 0 23704 18950 0 106 
5178,26 0 0 0 23394 18973 0 108 
5178,12 0 0 0 23104 18974 0 106 
5178,76 0 0 0 23026 18971 0 108 
5179,07 0 0 0 23306 18984 0 107 
5179,04 0 0 0 23252 19006 0 107 
5178,35 0 0 0 23564 18988 0 108 
5177,5 0 0 0 23868 18989 0 107 
5177,44 0 0 0 23944 18997 0 107 
5177,25 0 0 0 23563 18985 0 107 
5176,9 0 0 0 23301 18989 0 107 
5176,09 0 0 0 23513 18986 0 107 
5174,48 0 0 0 23881 18970 0 107 
5172,77 0 0 0 24222 18987 0 107 
5171,36 0 0 0 24762 18961 0 107 
5170,52 0 0 0 24968 18959 0 107 
5169,34 0 0 0 24440 18936 0 107 
5167,58 0 0 0 24276 18933 0 106 
5164,82 0 0 0 24102 18956 0 107 
5162,66 0 0 0 23903 18926 0 106 
5161,15 0 0 0 24216 18922 0 106 
5160,16 0 0 0 25232 18944 0 110 
5158,96 0 0 0 25942 18928 0 107 
5157,19 0 0 0 25731 18913 0 108 
5155,49 0 0 0 24988 18917 0 106 
5154,05 0 0 0 24078 18942 0 108 
5153,51 0 0 0 23574 18961 0 107 
5152,69 0 0 0 23438 18944 0 106 
5152,17 0 0 0 23802 18961 0 107 
5151,09 0 0 0 24427 18980 0 106 
5149,67 0 0 0 24840 19005 0 108 
5148,67 0 0 0 24937 19027 0 108 
5148,39 0 0 0 24490 19038 0 107 
5148,43 0 0 0 23988 19057 0 105 
5147,8 0 0 0 23892 19096 0 105 
5146,96 0 0 0 24353 19150 0 107 
5146,12 0 0 0 24791 19171 0 107 
5146,08 0 0 0 25213 19208 0 107 
5146,37 0 0 0 25414 19271 0 107 
5146,71 0 0 0 25464 19302 0 106 
5147,05 0 0 0 25387 19372 0 109 
5146,74 0 0 0 25318 19454 0 107 
5146,64 0 0 0 25177 19549 0 106 
5146,45 0 0 0 25229 19587 0 106 
5147,02 0 0 0 25504 19682 0 108 
5148,17 0 0 0 25924 19744 0 108 
5149,25 0 0 0 25934 19818 0 107 
5149,76 0 0 0 25624 19889 0 108 
5149,45 0 0 0 25226 19984 0 105 
5150,13 0 0 0 24847 20088 0 106 
5151,06 0 0 0 24966 20182 0 107 
5152,42 0 0 0 25080 20290 0 106 
5153,97 0 0 0 25598 20373 0 107 
5154,78 0 0 0 25990 20460 0 107 
5155,63 0 0 0 26193 20551 0 107 
5155,8 0 0 0 26144 20663 0 106 
5156,77 0 0 0 26010 20715 0 107 
5157,62 0 0 0 26377 20802 0 108 
5159,44 0 0 0 26701 20877 0 107 
5160,9 0 0 0 26704 20934 0 107 
5161,85 0 0 0 26506 20987 0 107 
5162,59 0 0 0 26354 21092 0 108 
5163,09 0 0 0 26484 21134 0 107 
5164,34 0 0 0 26603 21209 0 106 
5165,91 0 0 0 26702 21246 0 105 
5167,46 0 0 0 26600 21311 0 105 
5168,01 0 0 0 26480 21317 0 106 
5168,03 0 0 0 26563 21367 0 108 
5168,33 0 0 0 26878 21418 0 107 
5168,95 0 0 0 27228 21464 0 107 
5170,28 0 0 0 27689 21480 0 108 
5171,08 0 0 0 28160 21568 0 107 
5171,68 0 0 0 28310 21578 0 106 
5171,6 0 0 0 28378 21602 0 106 
5171,15 0 0 0 28268 21656 0 108 
5170,8 0 0 0 28274 21674 0 106 
5170,79 0 0 0 28138 21692 0 106 
5171,29 0 0 0 28176 21734 0 106 
5171,32 0 0 0 28535 21718 0 107 
5170,96 0 0 0 28737 21767 0 107 
5170,16 0 0 0 28748 21770 0 107 
5168,98 0 0 0 28617 21808 0 106 
5168,67 0 0 0 28610 21814 0 105 
5168,39 0 0 0 28538 21878 0 105 
5168,49 0 0 0 28345 21876 0 107 
5167,78 0 0 0 28252 21931 0 106 
5167,15 0 0 0 28083 21963 0 106 
5166,26 0 0 0 28126 22010 0 107 
5165,45 0 0 0 28268 22072 0 106 
5165,03 0 0 0 28142 22119 0 107 
5165,05 0 0 0 27668 22177 0 108 
5165,1 0 0 0 27138 22258 0 108 
5164,42 0 0 0 26751 22349 0 106 
5163,93 0 0 0 26435 22414 0 107 
5162,63 0 0 0 26126 22490 0 106 
5161,94 0 0 0 25769 22564 0 107 
5161,62 0 0 0 25511 22679 0 106 
5161,38 0 0 0 25378 22733 0 106 
5161,33 0 0 0 25232 22814 0 108 
5160,53 0 0 0 25108 22944 0 106 
5159,8 0 0 0 24996 23000 0 108 
5159,18 0 0 0 24852 23069 0 105 
5158,82 0 0 0 24940 23163 0 109 
5158,56 0 0 0 24856 23200 0 108 
5158,18 0 0 0 24946 23288 0 107 
5157,97 0 0 0 24881 23358 0 105 
5157,26 0 0 0 24786 23390 0 106 
5156,84 0 0 0 24388 23460 0 109 
5155,95 0 0 0 24122 23495 0 108 
5155,95 0 0 0 24208 23552 0 107 
5156,04 0 0 0 24202 23598 0 107 
5156,05 0 0 0 24041 23638 0 107 
5155,67 0 0 0 23918 23665 0 105 
5154,72 0 0 0 23722 23701 0 107 
5154,38 0 0 0 23831 23731 0 107 
5154,58 0 0 0 23786 23760 0 110 
5155,33 0 0 0 23844 23816 0 106 
5155,66 0 0 0 23942 23817 0 107 
5155,86 0 0 0 23925 23820 0 107 
5155,36 0 0 0 24036 23797 0 107 
5155,12 0 0 0 24136 23813 0 107 
5155,68 0 0 0 24439 23813 0 106 
5156,73 0 0 0 24653 23815 0 109 
5157,98 0 0 0 24669 23782 0 107 
5158,5 0 0 0 24568 23792 0 106 
5159,03 0 0 0 24684 23724 0 106 
5159,2 0 0 0 24792 23711 0 106 
5159,33 0 0 0 24800 23659 0 107 
5160,24 0 0 0 24624 23661 0 108 
5161,32 0 0 0 24570 23574 0 107 
5162,35 0 0 0 24463 23507 0 107 
5162,38 0 0 0 24352 23463 0 108 
5162,42 0 0 0 24158 23390 0 107 
5161,83 0 0 0 24320 23342 0 107 
5161,53 0 0 0 24640 23242 0 107 
5161,42 0 0 0 24494 23201 0 107 
5161,49 0 0 0 24470 23097 0 108 
5160,94 0 0 0 24697 22981 0 108 
5159,64 0 0 0 24825 22872 0 106 
5158,09 0 0 0 24515 22770 0 106 
5156,13 0 0 0 24498 22664 0 107 
5154,87 0 0 0 24770 22516 0 109 
5154,24 0 0 0 24949 22413 0 106 
5153,95 0 0 0 24734 22283 0 107 
5153,33 0 0 0 24523 22147 0 106 
5152,05 0 0 0 24402 22044 0 106 
5150,71 0 0 0 24214 21889 0 108 
5149,48 0 0 0 24079 21758 0 107 
5148,78 0 0 0 24182 21630 0 107 
5148,11 0 0 0 24410 21508 0 106 
5147,94 0 0 0 24605 21386 0 106 
5147,29 0 0 0 24748 21252 0 110 
5146,12 0 0 0 24682 21135 0 107 
5145,32 0 0 0 24682 21063 0 106 
5144,16 0 0 0 24471 20935 0 106 
5143,88 0 0 0 24434 20839 0 105 
5143,73 0 0 0 24690 20744 0 109 
5143,4 0 0 0 24781 20650 0 106 
5142,85 0 0 0 24704 20589 0 109 
5141,91 0 0 0 24801 20504 0 107 
5141,29 0 0 0 24933 20454 0 107 
5140,75 0 0 0 24864 20394 0 108 
5140,61 0 0 0 24563 20331 0 106 
5140,68 0 0 0 24462 20295 0 107 
5140,97 0 0 0 24530 20216 0 108 
5141,02 0 0 0 24637 20172 0 107 
5140,54 0 0 0 24532 20102 0 106 
5140,22 0 0 0 24605 20061 0 108 
5139,96 0 0 0 24746 19994 0 107 
5140,4 0 0 0 24670 19935 0 106 
5140,41 0 0 0 24561 19886 0 107 
5140,53 0 0 0 24568 19848 0 107 
5140,02 0 0 0 24568 19812 0 107 
5139,65 0 0 0 24836 19747 0 107 
5139,06 0 0 0 24861 19708 0 108 
5138,39 0 0 0 24769 19633 0 108 
5138,76 0 0 0 24836 19630 0 107 
5139,33 0 0 0 24904 19578 0 106 
5139,59 0 0 0 24756 19553 0 107 
5138,51 0 0 0 24677 19495 0 107 
5138,04 0 0 0 24684 19498 0 108 
5137,66 0 0 0 24476 19442 0 112 
5137,5 0 0 0 24480 19426 0 107 
5137,7 0 0 0 24814 19396 0 106 
5137,93 0 0 0 25032 19339 0 108 
5138,35 0 0 0 25105 19352 0 107 
5137,85 0 0 0 24950 19288 0 107 
5137,14 0 0 0 24787 19246 0 108 
5136,28 0 0 0 24722 19226 0 107 
5136,29 0 0 0 24914 19188 0 107 
5136,58 0 0 0 25085 19176 0 107 
5136,75 0 0 0 25098 19110 0 107 
5136,47 0 0 0 25085 19091 0 106 
5135,29 0 0 0 25176 19071 0 107 
5134,64 0 0 0 25158 19024 0 107 
5134,33 0 0 0 24894 18992 0 107 
5135,01 0 0 0 24756 18948 0 107 
5135,07 0 0 0 24750 18918 0 107 
5134,98 0 0 0 24708 18894 0 106 
5134,54 0 0 0 24338 18858 0 108 
5134,25 0 0 0 24062 18820 0 106 
5134,81 0 0 0 24177 18808 0 107 
5135,22 0 0 0 24372 18768 0 108 
5135,69 0 0 0 24474 18779 0 106 
5134,68 0 0 0 24752 18713 0 106 
5133,17 0 0 0 24996 18720 0 107 
5131,21 0 0 0 25033 18680 0 107 
5129,66 0 0 0 24837 18664 0 107 
5128,88 0 0 0 24933 18666 0 108 
5127,85 0 0 0 24668 18652 0 107 
5127,06 0 0 0 24580 18609 0 106 
5125,55 0 0 0 24782 18618 0 107 
5124,26 0 0 0 24889 18597 0 106 
5123,22 0 0 0 24903 18579 0 107 
5122,57 0 0 0 25003 18556 0 108 
5122,65 0 0 0 24808 18528 0 106 
5122,18 0 0 0 24610 18510 0 107 
5122 0 0 0 24676 18498 0 107 
5121,15 0 0 0 24936 18527 0 107 
5119,8 0 0 0 25093 18499 0 106 
5118,52 0 0 0 25166 18490 0 108 
5117,48 0 0 0 25168 18494 0 106 
5117,4 0 0 0 25081 18506 0 106 
5116,75 0 0 0 24883 18521 0 107 
5116,36 0 0 0 24607 18514 0 106 
5114,82 0 0 0 24435 18520 0 107 
5112,87 0 0 0 24410 18530 0 108 
5111,68 0 0 0 24315 18529 0 107 
5110,24 0 0 0 24566 18562 0 109 
5109,51 0 0 0 24852 18553 0 106 
5108,38 0 0 0 25407 18540 0 108 
5107,55 0 0 0 25481 18551 0 108 
5106,51 0 0 0 24990 18546 0 108 
5105,36 0 0 0 24401 18537 0 107 
5103,96 0 0 0 24100 18553 0 105 
5102,8 0 0 0 24304 18512 0 109 
5102,11 0 0 0 24810 18506 0 107 
5101,15 0 0 0 25055 18484 0 107 
5100,59 0 0 0 24958 18468 0 108 
5099,02 0 0 0 24910 18426 0 108 
5097,88 0 0 0 25054 18419 0 106 
5096,64 0 0 0 25041 18387 0 108 
5096,33 0 0 0 24914 18400 0 109 
5095,98 0 0 0 24683 18397 0 107 
5095,53 0 0 0 24862 18382 0 108 
5094,71 0 0 0 25036 18390 0 106 
5093,33 0 0 0 25022 18348 0 106 
5092,79 0 0 0 24903 18350 0 108 
5092,48 0 0 0 24898 18351 0 106 
5093,12 0 0 0 24797 18387 0 106 
5093,86 0 0 0 24610 18373 0 107 
5094,02 0 0 0 24648 18377 0 107 
5093,79 0 0 0 24606 18384 0 106 
5092,84 0 0 0 24537 18422 0 108 
5092,52 0 0 0 24777 18412 0 110 
5092,19 0 0 0 24977 18428 0 107 
5092,52 0 0 0 25298 18444 0 106 
5092,73 0 0 0 25438 18496 0 107 
5092,51 0 0 0 25345 18515 0 108 
5092,41 0 0 0 25130 18518 0 106 
5091,58 0 0 0 25030 18546 0 106 
5091,79 0 0 0 24915 18518 0 107 
5091,79 0 0 0 24879 18561 0 107 
5092,5 0 0 0 25112 18559 0 107 
5092,89 0 0 0 25196 18550 0 108 
5092,74 0 0 0 24946 18548 0 107 
5092,46 0 0 0 24589 18564 0 107 
5091,93 0 0 0 24316 18537 0 106 
5092,17 0 0 0 24386 18552 0 107 
5092,6 0 0 0 24617 18523 0 108 
5092,82 0 0 0 24809 18554 0 107 
5092,43 0 0 0 24847 18543 0 108 
5091,89 0 0 0 24805 18511 0 107 
5091,33 0 0 0 24685 18522 0 107 
5091 0 0 0 24722 18519 0 106 
5091,13 0 0 0 24802 18540 0 107 
5091,1 0 0 0 24874 18540 0 107 
5091,26 0 0 0 25080 18517 0 108 
5090,96 0 0 0 25241 18531 0 106 
5090,55 0 0 0 25388 18528 0 106 
5090,11 0 0 0 25288 18563 0 107 
5089,83 0 0 0 25418 18540 0 109 
5089,91 0 0 0 25617 18552 0 106 
5089,98 0 0 0 25926 18547 0 111 
5090,45 0 0 0 25912 18540 0 106 
5090,68 0 0 0 25598 18588 0 106 
5090,76 0 0 0 25598 18572 0 106 
5090,37 0 0 0 25608 18594 0 107 
5089,99 0 0 0 25517 18565 0 107 
5089,9 0 0 0 25284 18571 0 108 
5089,89 0 0 0 25216 18544 0 107 
5090,36 0 0 0 25148 18512 0 107 
5090,29 0 0 0 25285 18538 0 108 
5089,99 0 0 0 25121 18516 0 107 
5089,37 0 0 0 25278 18492 0 106 
5089,1 0 0 0 25332 18484 0 109 
5089,15 0 0 0 25374 18461 0 107 
5089,1 0 0 0 25308 18424 0 109 
5089,12 0 0 0 25010 18396 0 107 
5088,25 0 0 0 24796 18399 0 107 
5087,41 0 0 0 24813 18382 0 108 
5085,85 0 0 0 24978 18369 0 107 
5085,18 0 0 0 25281 18380 0 108 
5085,09 0 0 0 25329 18362 0 107 
5084,94 0 0 0 25317 18379 0 107 
5084,55 0 0 0 25130 18392 0 107 
5083,47 0 0 0 24728 18381 0 106 
5082,35 0 0 0 24624 18414 0 107 
5081,1 0 0 0 24627 18418 0 107 
5080,57 0 0 0 24872 18438 0 107 
5080,4 0 0 0 25147 18436 0 107 
5080,6 0 0 0 25036 18448 0 106 
5080,69 0 0 0 24950 18488 0 106 
5080,16 0 0 0 24942 18495 0 110 
5079,6 0 0 0 24857 18492 0 106 
5078,76 0 0 0 24699 18509 0 109 
5078,91 0 0 0 24870 18514 0 105 
5079,09 0 0 0 25234 18528 0 106 
5079,1 0 0 0 25064 18564 0 106 
5079,16 0 0 0 24808 18554 0 107 
5078,84 0 0 0 24610 18570 0 107 
5078,65 0 0 0 24321 18592 0 109 
5078,34 0 0 0 24400 18605 0 107 
5078,45 0 0 0 24469 18612 0 107 
5079,11 0 0 0 24408 18624 0 106 
5081,35 0 0 0 24646 18643 0 108 
5086,32 0 0 0 24933 18686 0 107 
5094,28 0 0 0 25022 18678 0 106 
5104,98 0 0 0 24951 18663 0 105 
5115,45 0 0 0 24692 18674 0 108 
5123,34 0 0 0 24512 18672 0 109 
5127,45 0 0 0 24593 18677 0 107 
5127,79 0 0 0 24774 18670 0 108 
5126,44 0 0 0 24920 18680 0 109 
5124,03 0 0 0 25146 18708 0 107 
5122,05 0 0 0 25265 18702 0 106 
5120,55 0 0 0 25276 18716 0 106 
5120,08 0 0 0 25729 18712 0 108 
5119,41 0 0 0 26943 18700 0 106 
5118,91 0 0 0 28547 18716 0 107 
5118,51 0 0 0 30952 18720 0 106 
5118 0 0 0 33976 18731 0 105 
5117,9 0 0 0 37434 18700 0 107 
5118,2 0 0 0 40728 18708 0 107 
5118,55 0 0 0 42450 18712 0 106 
5118,44 0 0 0 42731 18696 0 107 
5117,64 0 0 0 41942 18706 0 106 
5116,73 0 0 0 40454 18690 0 107 
5115,64 0 0 0 38036 18714 0 106 
5115,34 0 0 0 34940 18689 0 107 
5114,9 0 0 0 31899 18688 0 110 
5115,24 0 0 0 28639 18718 0 107 
5114,99 0 0 0 25516 18717 0 107 
5114,21 0 0 0 23721 18700 0 107 
5113,54 0 0 0 22694 18731 0 107 
5112,56 0 0 0 22126 18730 0 108 
5112,79 0 0 0 21618 18760 0 108 
5112,75 0 0 0 21406 18778 0 107 
5112,75 0 0 0 21736 18782 0 107 
5112,24 0 0 0 22015 18798 0 108 
5111,91 0 0 0 22147 18832 0 107 
5111,61 0 0 0 22221 18824 0 107 
5111,62 0 0 0 21945 18839 0 105 
5112,12 0 0 0 21746 18824 0 106 
5112,37 0 0 0 21976 18853 0 107 
5112,32 0 0 0 22358 18856 0 108 
5111,84 0 0 0 22800 18840 0 107 
5110,93 0 0 0 22954 18833 0 107 
5110 0 0 0 22777 18848 0 105 
5109,34 0 0 0 22501 18848 0 106 
5109,7 0 0 0 22314 18845 0 108 
5109,22 0 0 0 22370 18843 0 106 
5108,49 0 0 0 22626 18850 0 107 
5106,99 0 0 0 22911 18868 0 106 
5105,57 0 0 0 23116 18834 0 106 
5104,44 0 0 0 23184 18838 0 105 
5103,92 0 0 0 22822 18832 0 107 
5103,47 0 0 0 22318 18837 0 107 
5103,01 0 0 0 22219 18829 0 106 
5102,51 0 0 0 22638 18823 0 108 
5101,18 0 0 0 22846 18799 0 107 
5100,05 0 0 0 22849 18800 0 107 
5098,87 0 0 0 23145 18779 0 107 
5098,31 0 0 0 23717 18748 0 107 
5097,62 0 0 0 23624 18752 0 107 
5097,4 0 0 0 23304 18737 0 107 
5096,53 0 0 0 23124 18757 0 107 
5095,14 0 0 0 23056 18727 0 107 
5094 0 0 0 23280 18716 0 108 
5092,85 0 0 0 23402 18735 0 109 
5092,23 0 0 0 23406 18740 0 108 
5091,45 0 0 0 23682 18732 0 105 
5090,86 0 0 0 23580 18708 0 106 
5089,24 0 0 0 23508 18724 0 107 
5087,33 0 0 0 23632 18716 0 108 
5085,23 0 0 0 23833 18724 0 107 
5083,71 0 0 0 24138 18706 0 108 
5082,68 0 0 0 24221 18702 0 106 
5081,6 0 0 0 24253 18700 0 106 
5080,63 0 0 0 24305 18705 0 107 
5079,25 0 0 0 24247 18725 0 108 
5077,99 0 0 0 24036 18743 0 107 
5076,4 0 0 0 23864 18720 0 107 
5075,43 0 0 0 23589 18776 0 108 
5074,84 0 0 0 23636 18788 0 106 
5074,43 0 0 0 23918 18781 0 106 
5074,31 0 0 0 24122 18843 0 106 
5073,4 0 0 0 24150 18833 0 107 
5072,51 0 0 0 24138 18870 0 108 
5071,37 0 0 0 24031 18901 0 106 
5071,4 0 0 0 23784 18944 0 107 
5071,5 0 0 0 23814 18941 0 107 
5071,51 0 0 0 24020 19017 0 106 
5071,05 0 0 0 24597 19053 0 106 
5070,1 0 0 0 24556 19084 0 107 
5068,79 0 0 0 24569 19144 0 107 
5067,78 0 0 0 24604 19174 0 104 
5067,61 0 0 0 24561 19233 0 108 
5067,39 0 0 0 24381 19342 0 107 
5067,51 0 0 0 24428 19378 0 106 
5066,81 0 0 0 24487 19484 0 107 
5066,1 0 0 0 24868 19549 0 108 
5065,43 0 0 0 25386 19662 0 106 
5065,9 0 0 0 25331 19737 0 105 
5066,4 0 0 0 25004 19825 0 106 
5066,63 0 0 0 24890 19928 0 105 
5066,73 0 0 0 24816 20042 0 107 
5066,18 0 0 0 25100 20128 0 108 
5066,42 0 0 0 25035 20184 0 107 
5066,63 0 0 0 25142 20317 0 106 
5067,53 0 0 0 25436 20394 0 106 
5068,34 0 0 0 25732 20488 0 106 
5069,07 0 0 0 25838 20596 0 104 
5069,67 0 0 0 25421 20672 0 107 
5070,09 0 0 0 24916 20750 0 106 
5070,83 0 0 0 24765 20850 0 105 
5071,68 0 0 0 25293 20916 0 110 
5073,12 0 0 0 25821 20983 0 108 
5074,27 0 0 0 26472 21099 0 108 
5075,23 0 0 0 26672 21123 0 108 
5075,53 0 0 0 26400 21225 0 106 
5076,24 0 0 0 26185 21279 0 106 
5076,55 0 0 0 26151 21343 0 106 
5077,28 0 0 0 26344 21388 0 107 
5078,21 0 0 0 26384 21447 0 106 
5078,08 0 0 0 26674 21457 0 108 
5078,06 0 0 0 27246 21486 0 108 
5076,9 0 0 0 27266 21546 0 106 
5076,49 0 0 0 27272 21546 0 106 
5075,99 0 0 0 27212 21592 0 109 
5075,59 0 0 0 27022 21627 0 107 
5075,38 0 0 0 27041 21626 0 107 
5074,56 0 0 0 27090 21632 0 107 
5073,73 0 0 0 27306 21688 0 108 
5072,18 0 0 0 27826 21706 0 107 
5071,57 0 0 0 28304 21748 0 108 
5070,81 0 0 0 28482 21740 0 107 
5070,21 0 0 0 28280 21804 0 107 
5068,93 0 0 0 27930 21846 0 105 
5067,43 0 0 0 27786 21856 0 105 
5065,93 0 0 0 27907 21898 0 106 
5064,86 0 0 0 28217 21948 0 107 
5064,34 0 0 0 28426 21970 0 108 
5063,53 0 0 0 28116 22012 0 108 
5062,97 0 0 0 28001 22076 0 106 
5061,61 0 0 0 27779 22088 0 106 
5060,4 0 0 0 27262 22140 0 110 
5059,56 0 0 0 26768 22192 0 106 
5059,48 0 0 0 26507 22253 0 107 
5059,7 0 0 0 26475 22274 0 107 
5058,9 0 0 0 26575 22340 0 106 
5058,27 0 0 0 26492 22409 0 108 
5056,97 0 0 0 26114 22456 0 107 
5055,62 0 0 0 25766 22519 0 107 
5054,06 0 0 0 25401 22562 0 106 
5052,55 0 0 0 25223 22602 0 107 
5050,14 0 0 0 25329 22652 0 107 
5046,29 0 0 0 25392 22724 0 108 
5042,71 0 0 0 25040 22755 0 107 
5039,97 0 0 0 24425 22806 0 105 
5039,34 0 0 0 24413 22831 0 107 
5039,34 0 0 0 24220 22870 0 107 
5040,08 0 0 0 23912 22924 0 108 
5040,93 0 0 0 23862 22926 0 108 
5041,39 0 0 0 23930 22968 0 108 
5042,2 0 0 0 24151 22995 0 106 
5042,73 0 0 0 24552 23028 0 107 
5043,43 0 0 0 24449 23016 0 107 
5043,44 0 0 0 23628 23047 0 108 
5043,83 0 0 0 23067 23064 0 107 
5043,81 0 0 0 22711 23068 0 107 
5043,71 0 0 0 22480 23078 0 106 
5043,81 0 0 0 22541 23093 0 107 
5043,67 0 0 0 23010 23131 0 106 
5043,69 0 0 0 23824 23165 0 108 
5043,76 0 0 0 24143 23172 0 106 
5044,88 0 0 0 24030 23178 0 106 
5045,2 0 0 0 23802 23184 0 107 
5045,57 0 0 0 23556 23201 0 108 
5045,31 0 0 0 23462 23210 0 107 
5044,98 0 0 0 23543 23246 0 107 
5045,42 0 0 0 23747 23220 0 107 
5045,72 0 0 0 23810 23237 0 107 
5046,21 0 0 0 23552 23235 0 107 
5046,33 0 0 0 23420 23241 0 107 
5046,1 0 0 0 23265 23234 0 106 
5046,2 0 0 0 23155 23215 0 108 
5046,23 0 0 0 23154 23224 0 107 
5046,91 0 0 0 23464 23225 0 107 
5047,38 0 0 0 23784 23171 0 107 
5047,66 0 0 0 24177 23134 0 106 
5046,91 0 0 0 24348 23115 0 108 
5045,63 0 0 0 24133 23082 0 107 
5044,12 0 0 0 23698 23026 0 105 
5043,25 0 0 0 23338 22968 0 109 
5042,72 0 0 0 23276 22891 0 107 
5041,67 0 0 0 23426 22799 0 107 
5040,56 0 0 0 23452 22700 0 107 
5038,62 0 0 0 23630 22601 0 108 
5037,03 0 0 0 23677 22472 0 108 
5034,98 0 0 0 23463 22362 0 107 
5033,26 0 0 0 23062 22274 0 108 
5032,25 0 0 0 22765 22140 0 105 
5031,5 0 0 0 23085 22014 0 107 
5031,08 0 0 0 23646 21896 0 107 
5030,17 0 0 0 24070 21777 0 108 
5029,02 0 0 0 24496 21673 0 108 
5027,41 0 0 0 24580 21538 0 107 
5026,62 0 0 0 24468 21452 0 108 
5026,23 0 0 0 24044 21329 0 106 
5026,02 0 0 0 23468 21232 0 106 
5025,7 0 0 0 23227 21126 0 108 
5024,47 0 0 0 23574 21034 0 106 
5023,44 0 0 0 24169 20935 0 108 
5022,28 0 0 0 24721 20870 0 106 
5021,36 0 0 0 24811 20796 0 106 
5020,35 0 0 0 24723 20670 0 106 
5019,68 0 0 0 24302 20610 0 107 
5019,25 0 0 0 23859 20577 0 107 
5018,24 0 0 0 23786 20496 0 107 
5017,17 0 0 0 24026 20435 0 108 
5016,02 0 0 0 24006 20376 0 110 
5015,23 0 0 0 24221 20260 0 106 
5014,32 0 0 0 24494 20232 0 106 
5014,06 0 0 0 24400 20146 0 106 
5013,93 0 0 0 24602 20075 0 107 
5013,27 0 0 0 24739 20038 0 108 
5012,57 0 0 0 24835 19989 0 109 
5011,55 0 0 0 24646 19911 0 109 
5010,81 0 0 0 24530 19904 0 107 
5010 0 0 0 24488 19791 0 109 
5009,79 0 0 0 24534 19747 0 107 
5009,8 0 0 0 24450 19696 0 107 
5009,22 0 0 0 24308 19693 0 106 
5008,21 0 0 0 24053 19613 0 107 
5006,87 0 0 0 23890 19576 0 106 
5006,8 0 0 0 24347 19543 0 108 
5006,91 0 0 0 24800 19498 0 107 
5008,07 0 0 0 24916 19461 0 107 
5008,59 0 0 0 24670 19432 0 105 
5008,67 0 0 0 24565 19387 0 106 
5008,46 0 0 0 24261 19360 0 110 
5008,6 0 0 0 23761 19309 0 107 
5009,57 0 0 0 23883 19265 0 107 
5010,77 0 0 0 24505 19214 0 107 
5011,92 0 0 0 24934 19168 0 107 
5012,44 0 0 0 25144 19154 0 106 
5012,88 0 0 0 25198 19095 0 108 
5013,14 0 0 0 25117 19110 0 109 
5014,39 0 0 0 24957 19033 0 106 
5016,32 0 0 0 24645 19001 0 108 
5017,85 0 0 0 24260 18976 0 107 
5018,76 0 0 0 24235 18957 0 108 
5019,03 0 0 0 24547 18927 0 107 
5019,97 0 0 0 24904 18890 0 105 
5020,8 0 0 0 25070 18898 0 108 
5022,29 0 0 0 24827 18874 0 107 
5023,38 0 0 0 24592 18846 0 106 
5023,64 0 0 0 24372 18840 0 109 
5023,9 0 0 0 24252 18821 0 108 
5024,04 0 0 0 24340 18797 0 106 
5024,87 0 0 0 24633 18787 0 107 
5025,52 0 0 0 24985 18776 0 107 
5025,86 0 0 0 25132 18753 0 108 
5025,82 0 0 0 25166 18741 0 107 
5025,52 0 0 0 25083 18770 0 107 
5025,47 0 0 0 24850 18748 0 107 
5025,7 0 0 0 24965 18715 0 107 
5025,91 0 0 0 24998 18694 0 107 
5025,41 0 0 0 24928 18663 0 108 
5025,01 0 0 0 24760 18654 0 106 
5024,03 0 0 0 24762 18630 0 109 
5023,63 0 0 0 24787 18638 0 109 
5023,63 0 0 0 24501 18634 0 107 
5023,78 0 0 0 24368 18598 0 107 
5024,05 0 0 0 24588 18595 0 108 
5023,52 0 0 0 24616 18597 0 109 
5022,77 0 0 0 24484 18582 0 106 
5022,06 0 0 0 24770 18569 0 106 
5022,08 0 0 0 24763 18596 0 105 
5022,54 0 0 0 24787 18605 0 106 
5022,72 0 0 0 24741 18596 0 108 
5022,7 0 0 0 24480 18599 0 106 
5022,08 0 0 0 24308 18589 0 108 
5021,9 0 0 0 24403 18614 0 106 
5021,91 0 0 0 24525 18596 0 106 
5022,29 0 0 0 24996 18588 0 107 
5022,84 0 0 0 25210 18622 0 107 
5023,37 0 0 0 25181 18600 0 107 
5024,22 0 0 0 25032 18579 0 107 
5027,36 0 0 0 24520 18564 0 107 
5034,39 0 0 0 24307 18559 0 107 
5044,57 0 0 0 24443 18559 0 107 
5055,24 0 0 0 24676 18547 0 107 
5062,93 0 0 0 24880 18556 0 106 
5067,4 0 0 0 25027 18522 0 106 
5069,62 0 0 0 25086 18536 0 108 
5070,26 0 0 0 24854 18552 0 107 
5070,13 0 0 0 24390 18567 0 106 
5069,17 0 0 0 24062 18565 0 107 
5068,06 0 0 0 24041 18572 0 106 
5066,78 0 0 0 24596 18552 0 106 
5065,8 0 0 0 24945 18580 0 108 
5065,94 0 0 0 25294 18584 0 107 
5066,67 0 0 0 25482 18585 0 107 
5068,2 0 0 0 25270 18579 0 108 
5069,41 0 0 0 24467 18590 0 107 
5069,92 0 0 0 24411 18620 0 106 
5069,95 0 0 0 24857 18612 0 107 
5070,07 0 0 0 25301 18604 0 108 
5070,73 0 0 0 25562 18609 0 107 
5071,37 0 0 0 25619 18589 0 107 
5072,04 0 0 0 25500 18577 0 106 
5071,84 0 0 0 24834 18592 0 106 
5071,95 0 0 0 24531 18570 0 107 
5071,98 0 0 0 24440 18549 0 106 
5072,72 0 0 0 24600 18550 0 107 
5073,52 0 0 0 25002 18550 0 106 
5073,87 0 0 0 25444 18544 0 106 
5074,06 0 0 0 25504 18517 0 106 
5073,83 0 0 0 25132 18508 0 101 
5073,96 0 0 0 24948 18492 0 107 
5073,97 0 0 0 24880 18482 0 107 
5074,47 0 0 0 24812 18470 0 106 
5074,84 0 0 0 24676 18476 0 107 
5074,99 0 0 0 24648 18464 0 107 
5074,88 0 0 0 24948 18472 0 109 
5074,36 0 0 0 25294 18456 0 106 
5074,72 0 0 0 25454 18444 0 105 
5075,24 0 0 0 25448 18393 0 107 
5076,38 0 0 0 25250 18406 0 107 
5076,78 0 0 0 24879 18367 0 107 
5077,37 0 0 0 24778 18353 0 108 
5077,4 0 0 0 25102 18358 0 107 
5077,29 0 0 0 25530 18341 0 107 
5077,47 0 0 0 25704 18348 0 107 
5078,26 0 0 0 25679 18338 0 103 
5079,55 0 0 0 25306 18359 0 106 
5080,2 0 0 0 24844 18372 0 107 
5080,44 0 0 0 24684 18380 0 107 
5080,25 0 0 0 24710 18394 0 105 
5080,99 0 0 0 25168 18432 0 107 
5081,8 0 0 0 25851 18482 0 106 
5082,9 0 0 0 26299 18490 0 107 
5083,22 0 0 0 26194 18533 0 106 
5082,81 0 0 0 25686 18547 0 107 
5082,56 0 0 0 25272 18576 0 108 
5082,28 0 0 0 25117 18594 0 106 
5083,15 0 0 0 25338 18625 0 107 
5083,64 0 0 0 25666 18646 0 106 
5084,24 0 0 0 26010 18653 0 106 
5084,03 0 0 0 26290 18631 0 107 
5083,74 0 0 0 25995 18650 0 106 
5083,55 0 0 0 25565 18644 0 108 
5084,16 0 0 0 25057 18657 0 107 
5085,47 0 0 0 24778 18653 0 109 
5086,14 0 0 0 24780 18645 0 105 
5086,85 0 0 0 25139 18623 0 106 
5086,59 0 0 0 25402 18636 0 106 
5086,44 0 0 0 25610 18629 0 106 
5086,63 0 0 0 25540 18640 0 107 
5087,24 0 0 0 25185 18629 0 106 
5088,5 0 0 0 24862 18637 0 107 
5089,1 0 0 0 24760 18630 0 107 
5089,65 0 0 0 24952 18641 0 106 
5089,29 0 0 0 25259 18653 0 108 
5089,6 0 0 0 25782 18647 0 108 
5090,12 0 0 0 26013 18633 0 108 
5091,41 0 0 0 25720 18669 0 106 
5092,77 0 0 0 25280 18662 0 108 
5093,46 0 0 0 24761 18652 0 108 
5094,12 0 0 0 24392 18660 0 107 
5094,29 0 0 0 24310 18647 0 107 
5095,13 0 0 0 24685 18665 0 108 
5096,18 0 0 0 24912 18677 0 108 
5097,69 0 0 0 24786 18664 0 107 
5098,41 0 0 0 24818 18672 0 108 
5098,71 0 0 0 24947 18696 0 107 
5098,54 0 0 0 24742 18673 0 108 
5098,14 0 0 0 24695 18700 0 107 
5098,32 0 0 0 24893 18674 0 107 
5098,62 0 0 0 25285 18722 0 106 
5099,62 0 0 0 25599 18672 0 106 
5099,59 0 0 0 25762 18695 0 108 
5099,94 0 0 0 25433 18698 0 107 
5099,79 0 0 0 24916 18689 0 107 
5099,88 0 0 0 24605 18694 0 109 
5100,56 0 0 0 24455 18691 0 108 
5101,03 0 0 0 24512 18665 0 105 
5102,19 0 0 0 24642 18668 0 108 
5102,85 0 0 0 25058 18690 0 107 
5103,21 0 0 0 25399 18681 0 107 
5102,98 0 0 0 25610 18680 0 106 
5103,19 0 0 0 25330 18673 0 107 
5103,53 0 0 0 24594 18700 0 106 
5104,11 0 0 0 24272 18721 0 107 
5105,21 0 0 0 24516 18707 0 107 
5105,68 0 0 0 24866 18716 0 106 
5106,16 0 0 0 25374 18757 0 105 
5105,96 0 0 0 26168 18732 0 108 
5106,3 0 0 0 27051 18763 0 107 
5106,74 0 0 0 28075 18782 0 108 
5107,36 0 0 0 29834 18790 0 106 
5108,72 0 0 0 32630 18806 0 107 
5109,52 0 0 0 36070 18817 0 107 
5110,37 0 0 0 39578 18833 0 107 
5110,8 0 0 0 42366 18828 0 106 
5110,96 0 0 0 43786 18832 0 106 
5111,36 0 0 0 43196 18863 0 108 
5112,28 0 0 0 41549 18848 0 106 
5113,41 0 0 0 39236 18847 0 107 
5114,15 0 0 0 36353 18834 0 108 
5114,76 0 0 0 33212 18861 0 106 
5114,5 0 0 0 30195 18872 0 106 
5114,97 0 0 0 27386 18870 0 107 
5115,33 0 0 0 24962 18842 0 110 
5116,08 0 0 0 22898 18852 0 105 
5117,09 0 0 0 21404 18863 0 106 
5117,59 0 0 0 20542 18846 0 108 
5118,18 0 0 0 20703 18840 0 106 
5118,16 0 0 0 21124 18840 0 107 
5118,62 0 0 0 21816 18834 0 107 
5118,89 0 0 0 22570 18847 0 108 
5119,9 0 0 0 22900 18848 0 107 
5120,84 0 0 0 23027 18832 0 108 
5121,86 0 0 0 22686 18819 0 106 
5122,38 0 0 0 22168 18802 0 107 
5122,27 0 0 0 21970 18803 0 107 
5122,55 0 0 0 22118 18766 0 108 
5122,72 0 0 0 22445 18770 0 107 
5123,58 0 0 0 22965 18742 0 106 
5124,48 0 0 0 23064 18728 0 107 
5125,36 0 0 0 23030 18721 0 107 
5125,83 0 0 0 22884 18741 0 107 
5125,62 0 0 0 22754 18751 0 106 
5125,62 0 0 0 22649 18749 0 107 
5125,73 0 0 0 22840 18761 0 106 
5126,58 0 0 0 23030 18731 0 110 
5126,86 0 0 0 23205 18772 0 109 
5127,29 0 0 0 23115 18789 0 107 
5127,31 0 0 0 23126 18781 0 108 
5127,11 0 0 0 23115 18807 0 107 
5127,39 0 0 0 23028 18786 0 106 
5128,1 0 0 0 22984 18818 0 107 
5129,02 0 0 0 23317 18822 0 106 
5129,48 0 0 0 23376 18828 0 106 
5130,1 0 0 0 23496 18826 0 106 
5130,01 0 0 0 23685 18844 0 107 
5129,76 0 0 0 23601 18851 0 108 
5129,83 0 0 0 23389 18834 0 107 
5129,73 0 0 0 23316 18854 0 107 
5130,38 0 0 0 23415 18840 0 108 
5130,31 0 0 0 23320 18864 0 105 
5129,93 0 0 0 22956 18851 0 105 
5129,3 0 0 0 23312 18854 0 108 
5128,41 0 0 0 23696 18848 0 107 
5127,67 0 0 0 23517 18824 0 106 
5126,99 0 0 0 23018 18833 0 107 
5126,86 0 0 0 22962 18848 0 107 
5126,02 0 0 0 23101 18820 0 106 
5125,65 0 0 0 23258 18859 0 106 
5124,7 0 0 0 23753 18827 0 108 
5123,6 0 0 0 24032 18822 0 107 
5122,4 0 0 0 24286 18826 0 108 
5121,09 0 0 0 24445 18853 0 107 
5120,57 0 0 0 24249 18832 0 106 
5120,19 0 0 0 23810 18827 0 106 
5120,41 0 0 0 23862 18846 0 106 
5119,92 0 0 0 24158 18858 0 106 
5119,55 0 0 0 24305 18880 0 106 
5119,42 0 0 0 24377 18872 0 106 
5119,4 0 0 0 24333 18950 0 107 
5119,43 0 0 0 24305 18983 0 106 
5119,67 0 0 0 24203 18999 0 108 
5120,58 0 0 0 24079 19031 0 106 
5120,83 0 0 0 24094 19077 0 107 
5121,2 0 0 0 24444 19124 0 107 
5120,73 0 0 0 24713 19185 0 108 
5120,68 0 0 0 25001 19263 0 107 
5120,55 0 0 0 24954 19288 0 106 
5120,95 0 0 0 24850 19370 0 108 
5121,79 0 0 0 24562 19456 0 108 
5122,37 0 0 0 24219 19522 0 107 
5122,27 0 0 0 24226 19612 0 106 
5121,74 0 0 0 24461 19724 0 106 
5121,35 0 0 0 24933 19814 0 109 
5121,2 0 0 0 25317 19919 0 106 
5122,26 0 0 0 25258 19985 0 108 
5123,32 0 0 0 25171 20092 0 107 
5124,27 0 0 0 25005 20202 0 107 
5124,69 0 0 0 24860 20315 0 108 
5125,12 0 0 0 24832 20410 0 105 
5125,64 0 0 0 24930 20488 0 107 
5125,87 0 0 0 25070 20619 0 107 
5126,67 0 0 0 25333 20702 0 108 
5127,16 0 0 0 25523 20786 0 109 
5128,05 0 0 0 25560 20855 0 106 
5128,8 0 0 0 25718 20928 0 106 
5128,9 0 0 0 25700 21014 0 107 
5128,47 0 0 0 25846 21052 0 107 
5127,82 0 0 0 26302 21138 0 107 
5128 0 0 0 26698 21216 0 108 
5128,36 0 0 0 26621 21253 0 106 
5128,98 0 0 0 26432 21305 0 107 
5128,83 0 0 0 26089 21401 0 106 
5128,64 0 0 0 26064 21452 0 108 
5127,71 0 0 0 26093 21488 0 107 
5127,09 0 0 0 26228 21535 0 108 
5126,79 0 0 0 26486 21592 0 109 
5126,36 0 0 0 26778 21638 0 108 
5125,85 0 0 0 27145 21684 0 106 
5125,08 0 0 0 27344 21724 0 108 
5124,19 0 0 0 27298 21762 0 108 
5122,64 0 0 0 27282 21790 0 106 
5121,56 0 0 0 26940 21831 0 107 
5120,27 0 0 0 27093 21872 0 107 
5119,68 0 0 0 27341 21898 0 106 
5118,75 0 0 0 27753 21922 0 109 
5118,14 0 0 0 28363 21944 0 107 
5117,43 0 0 0 28579 21941 0 106 
5116,5 0 0 0 28566 21970 0 106 
5115,6 0 0 0 28236 21984 0 107 
5114,17 0 0 0 28113 21991 0 107 
5113,48 0 0 0 28127 21995 0 109 
5112,34 0 0 0 28006 22009 0 107 
5111,98 0 0 0 27769 22012 0 106 
5111,36 0 0 0 27776 22036 0 106 
5111,15 0 0 0 27506 22065 0 104 
5110,21 0 0 0 27200 22084 0 110 
5109,3 0 0 0 26918 22105 0 107 
5108,5 0 0 0 26498 22145 0 107 
5107,8 0 0 0 26406 22175 0 108 
5107,82 0 0 0 26462 22220 0 107 
5107,8 0 0 0 26627 22232 0 106 
5108,08 0 0 0 26585 22267 0 108 
5108,13 0 0 0 26454 22339 0 108 
5108,54 0 0 0 26249 22353 0 107 
5108,18 0 0 0 25967 22395 0 107 
5107,91 0 0 0 25297 22430 0 107 
5107,73 0 0 0 24592 22507 0 106 
5107,95 0 0 0 24390 22535 0 112 
5108,86 0 0 0 24018 22584 0 107 
5109,36 0 0 0 24233 22631 0 108 
5109,98 0 0 0 24423 22686 0 106 
5110,25 0 0 0 24032 22731 0 107 
5110,09 0 0 0 23584 22764 0 109 
5110,23 0 0 0 23296 22824 0 108 
5110,17 0 0 0 23260 22863 0 106 
5110,88 0 0 0 23492 22892 0 107 
5111,66 0 0 0 23642 22907 0 107 
5112,66 0 0 0 24093 22930 0 107 
5113,35 0 0 0 24357 22973 0 109 
5113,79 0 0 0 24160 22977 0 107 
5113,58 0 0 0 23798 22982 0 107 
5113,75 0 0 0 23300 22983 0 108 
5113,97 0 0 0 22928 23023 0 109 
5114,39 0 0 0 22498 23025 0 107 
5115,28 0 0 0 22630 23032 0 107 
5115,91 0 0 0 23134 23029 0 108 
5116,82 0 0 0 23448 23040 0 106 
5116,82 0 0 0 23536 23039 0 106 
5116,54 0 0 0 23518 23067 0 107 
5116,45 0 0 0 23144 23033 0 107 
5116,38 0 0 0 23155 23046 0 106 
5116,93 0 0 0 23450 23031 0 107 
5117,54 0 0 0 23626 23027 0 107 
5118,47 0 0 0 23915 22994 0 107 
5118,97 0 0 0 24069 22991 0 107 
5119,56 0 0 0 23778 22972 0 106 
5119,64 0 0 0 23588 22947 0 105 
5119,96 0 0 0 23491 22932 0 106 
5119,77 0 0 0 23470 22873 0 109 
5120,27 0 0 0 23517 22837 0 108 
5120,64 0 0 0 23501 22814 0 107 
5121,32 0 0 0 23949 22734 0 106 
5121,93 0 0 0 24222 22704 0 107 
5121,88 0 0 0 24238 22634 0 105 
5121,3 0 0 0 24145 22564 0 107 
5120,13 0 0 0 23696 22507 0 107 
5119,56 0 0 0 23334 22413 0 108 
5118,7 0 0 0 23398 22353 0 107 
5118,36 0 0 0 23583 22256 0 107 
5117,96 0 0 0 23845 22145 0 107 
5117,52 0 0 0 23961 22072 0 105 
5116,67 0 0 0 23840 21975 0 108 
5115,62 0 0 0 23320 21906 0 108 
5114,27 0 0 0 23109 21779 0 107 
5112,97 0 0 0 23323 21714 0 108 
5112,15 0 0 0 23521 21596 0 105 
5111,22 0 0 0 23479 21469 0 107 
5110,82 0 0 0 23570 21355 0 106 
5110,01 0 0 0 23819 21252 0 108 
5109,51 0 0 0 23771 21180 0 108 
5108,42 0 0 0 23821 21069 0 107 
5107,6 0 0 0 23588 20992 0 110 
5106,53 0 0 0 23454 20904 0 106 
5105,83 0 0 0 23563 20829 0 108 
5105,02 0 0 0 23835 20743 0 106 
5104,33 0 0 0 24240 20675 0 107 
5103,58 0 0 0 24156 20617 0 106 
5102,2 0 0 0 23703 20546 0 107 
5100,9 0 0 0 23814 20468 0 107 
5099,59 0 0 0 23819 20428 0 107 
5098,48 0 0 0 23713 20401 0 108 
5097,46 0 0 0 23643 20338 0 106 
5096,57 0 0 0 23682 20332 0 106 
5096,02 0 0 0 24095 20275 0 107 
5094,88 0 0 0 24457 20233 0 106 
5093,6 0 0 0 24554 20188 0 109 
5091,59 0 0 0 24612 20166 0 106 
5090,29 0 0 0 24276 20136 0 108 
5089,34 0 0 0 23977 20082 0 105 
5089,06 0 0 0 24149 20040 0 107 
5088,2 0 0 0 24416 19996 0 107 
5086,93 0 0 0 24449 19962 0 107 
5085,78 0 0 0 24621 19935 0 106 
5084,37 0 0 0 24612 19893 0 106 
5083,52 0 0 0 24377 19860 0 107 
5082,56 0 0 0 24208 19819 0 107 
5082,26 0 0 0 23987 19774 0 108 
5081,47 0 0 0 24189 19752 0 107 
5081,12 0 0 0 24194 19716 0 107 
5080,65 0 0 0 24290 19670 0 107 
5079,9 0 0 0 24538 19630 0 109 
5079,1 0 0 0 24604 19640 0 104 
5077,89 0 0 0 24521 19591 0 108 
5077,64 0 0 0 24359 19563 0 106 
5077,56 0 0 0 24306 19531 0 106 
5078,2 0 0 0 24304 19515 0 107 
5078,26 0 0 0 24438 19478 0 108 
5078,23 0 0 0 24927 19470 0 108 
5077,59 0 0 0 24930 19406 0 109 
5077,61 0 0 0 24760 19383 0 110 
5077,73 0 0 0 24426 19347 0 107 
5078,09 0 0 0 24112 19323 0 107 
5078,86 0 0 0 23905 19285 0 108 
5079,21 0 0 0 23812 19242 0 107 
5079,66 0 0 0 24024 19235 0 106 
5079,58 0 0 0 24258 19204 0 106 
5080,1 0 0 0 24303 19157 0 108 
5080,68 0 0 0 24185 19158 0 107 
5082,22 0 0 0 24296 19132 0 107 
5083,92 0 0 0 24295 19112 0 109 
5085,45 0 0 0 24162 19080 0 107 
5087 0 0 0 24204 19068 0 106 
5088,55 0 0 0 24380 19042 0 107 
5091,39 0 0 0 24680 19015 0 107 
5096,04 0 0 0 25074 18996 0 108 
5104,04 0 0 0 25309 18976 0 108 
5115,6 0 0 0 24958 18952 0 107 
5130,17 0 0 0 24312 18936 0 105 
5147,34 0 0 0 24092 18881 0 105 
5167,67 0 0 0 24136 18880 0 105 
5193,12 0 0 0 24005 18867 0 108 
5223,82 0 0 0 24236 18834 0 107 
5257,45 0 0 0 24692 18802 0 107 
5294,1 0 0 0 25110 18812 0 106 
5334,85 0 0 0 24934 18764 0 107 
5379,42 0 0 0 24129 18772 0 105 
5425,16 0 0 0 23909 18726 0 107 
5470,69 0 0 0 24148 18739 0 106 
5518,01 0 0 0 24442 18692 0 107 
5563,63 0 0 0 24828 18712 0 106 
5606,34 0 0 0 25001 18700 0 108 
5652,03 0 0 0 24970 18698 0 107 
5695,26 0 0 0 24638 18680 0 106 
5732,43 0 0 0 24324 18655 0 106 
5772,8 0 0 0 24604 18662 0 106 
5821,48 0 0 0 24620 18633 0 106 
0 0 0 0 24654 18660 0 107 
0 0 0 0 24549 18600 0 107 
0 0 0 0 24628 18605 0 107 
0 0 0 0 24549 18583 0 107 
0 0 0 0 24274 18592 0 107 
0 0 0 0 24099 18574 0 108 
0 0 0 0 23978 18541 0 107 
1721,33 0 0 0 24297 18547 0 108 
2034,61 0 0 0 24834 18546 0 105 
2076,49 0 0 0 25432 18533 0 105 
2111,13 0 0 0 25321 18512 0 107 
2148,38 0 0 0 24941 18522 0 108 
0 0 0 0 24712 18547 0 108 
0 0 0 0 24440 18523 0 107 
0 0 0 0 24346 18532 0 107 
0 0 0 0 24523 18550 0 107 
0 0 0 0 24837 18576 0 107 
0 0 0 0 24935 18582 0 108 
0 0 0 0 24597 18575 0 108 
1638,19 0 0 0 24644 18610 0 106 
0 0 0 0 24674 18631 0 106 
0 0 0 0 24506 18651 0 107 
0 0 0 0 24480 18665 0 107 
2011,73 0 0 0 24577 18671 0 106 
1987,64 0 0 0 24704 18696 0 107 
1967,54 0 0 0 24867 18710 0 106 
1949,01 0 0 0 24843 18702 0 107 
1932,91 0 0 0 25124 18697 0 107 
1912,42 0 0 0 25414 18719 0 107 
0 0 0 0 25058 18685 0 106 
2110,83 0 0 0 24865 18709 0 106 
2094,2 0 0 0 24680 18670 0 107 
2088,35 0 0 0 24724 18661 0 108 
0 0 0 0 24750 18646 0 107 
0 0 0 0 24792 18652 0 107 
0 0 0 0 24790 18602 0 106 
0 0 0 0 24780 18630 0 106 
5668,57 0 0 0 24556 18620 0 107 
5635,24 0 0 0 24452 18588 0 108 
5609,78 0 0 0 24610 18560 0 108 
5588,14 0 0 0 24820 18538 0 107 
5570,29 0 0 0 25232 18562 0 105 
5554,82 0 0 0 25402 18545 0 108 
5542,36 0 0 0 25427 18552 0 108 
5531,09 0 0 0 25240 18552 0 107 
5521,19 0 0 0 24860 18557 0 107 
5511,57 0 0 0 24802 18577 0 108 
5502,85 0 0 0 24944 18561 0 107 
5493,44 0 0 0 25247 18582 0 107 
5483,84 0 0 0 25610 18588 0 106 
5473,62 0 0 0 25621 18572 0 106 
5463,27 0 0 0 25325 18603 0 106 
5452,27 0 0 0 25176 18598 0 107 
5442,43 0 0 0 25107 18586 0 107 
5432,73 0 0 0 25272 18567 0 107 
5423,5 0 0 0 25268 18615 0 107 
5414,32 0 0 0 25324 18593 0 108 
5405,36 0 0 0 25437 18617 0 106 
5397,02 0 0 0 25543 18621 0 106 
5388,77 0 0 0 25176 18613 0 106 
5380,95 0 0 0 24860 18613 0 106 
5372,87 0 0 0 24659 18604 0 106 
5365,12 0 0 0 24558 18619 0 107 
5357,15 0 0 0 24834 18601 0 106 
5349,37 0 0 0 24962 18611 0 110 
5341,52 0 0 0 25318 18589 0 107 
5334 0 0 0 25641 18593 0 107 
5327,08 0 0 0 25638 18608 0 105 
5320,97 0 0 0 24950 18618 0 108 
5314,65 0 0 0 24526 18612 0 107 
5308,24 0 0 0 24472 18632 0 107 
5301,61 0 0 0 24598 18652 0 108 
5295,42 0 0 0 24858 18666 0 106 
5289,21 0 0 0 25011 18662 0 107 
5283,64 0 0 0 25163 18676 0 106 
5278,43 0 0 0 25401 18710 0 107 
5274,08 0 0 0 25352 18733 0 106 
5269,13 0 0 0 24914 18716 0 107 
5264,43 0 0 0 24584 18734 0 107 
5259,89 0 0 0 24707 18729 0 109 
5255,42 0 0 0 24846 18752 0 107 
5251,19 0 0 0 24995 18743 0 106 
5246,8 0 0 0 24912 18748 0 107 
5242,87 0 0 0 24816 18731 0 105 
5239,37 0 0 0 24698 18743 0 107 
5236,35 0 0 0 24368 18724 0 106 
5233,01 0 0 0 24408 18715 0 107 
5229,94 0 0 0 24420 18694 0 107 
5226,13 0 0 0 24540 18705 0 106 
5222,7 0 0 0 24788 18683 0 107 
5218,75 0 0 0 24804 18708 0 107 
5215,45 0 0 0 24988 18708 0 107 
5211,89 0 0 0 24957 18690 0 108 
5208,91 0 0 0 24793 18663 0 107 
5206,23 0 0 0 24597 18680 0 109 
5203,28 0 0 0 24518 18659 0 107 
5200,34 0 0 0 24560 18682 0 107 
5197,13 0 0 0 24739 18670 0 107 
5193,98 0 0 0 24885 18679 0 107 
5190,71 0 0 0 25091 18669 0 107 
5187,95 0 0 0 24773 18666 0 107 
5185,73 0 0 0 24582 18683 0 106 
5183,89 0 0 0 24641 18682 0 108 
5181,89 0 0 0 24563 18658 0 107 
5180,22 0 0 0 24422 18669 0 106 
5178,07 0 0 0 24594 18662 0 106 
5175,96 0 0 0 24846 18664 0 105 
5173,83 0 0 0 24917 18671 0 107 
5171,89 0 0 0 25070 18686 0 108 
5170,62 0 0 0 25494 18696 0 107 
5169,38 0 0 0 26264 18704 0 107 
5168,61 0 0 0 27540 18696 0 107 
5167,7 0 0 0 29746 18699 0 108 
5166,99 0 0 0 32629 18684 0 108 
5166,01 0 0 0 35605 18708 0 106 
5164,86 0 0 0 38609 18702 0 106 
5163,61 0 0 0 40821 18735 0 108 
5162,45 0 0 0 41936 18716 0 105 
5162,49 0 0 0 42213 18746 0 109 
5162,55 0 0 0 41397 18738 0 110 
5163,39 0 0 0 39856 18744 0 108 
5163,88 0 0 0 37324 18749 0 106 
5164,21 0 0 0 33962 18758 0 107 
5164,29 0 0 0 30325 18776 0 106 
5164,24 0 0 0 26958 18794 0 106 
5164,34 0 0 0 24420 18796 0 107 
5164,87 0 0 0 22746 18802 0 105 
5166,06 0 0 0 21806 18791 0 107 
5166,53 0 0 0 21552 18814 0 109 
5167 0 0 0 21610 18792 0 108 
5167,09 0 0 0 21712 18789 0 106 
5167,13 0 0 0 21882 18782 0 107 
5167,31 0 0 0 21971 18767 0 107 
5167,75 0 0 0 21783 18751 0 107 
5168,25 0 0 0 21821 18719 0 107 
5168,46 0 0 0 22209 18753 0 106 
5168,52 0 0 0 22542 18712 0 105 
5168,39 0 0 0 22568 18730 0 107 
5168,41 0 0 0 22428 18721 0 106 
5168,5 0 0 0 22514 18712 0 108 
5168,67 0 0 0 22494 18731 0 106 
5168,36 0 0 0 22082 18734 0 107 
5168 0 0 0 22184 18733 0 108 
5168,15 0 0 0 22444 18730 0 106 
5167,99 0 0 0 22664 18715 0 108 
5167,78 0 0 0 23174 18743 0 108 
5166,95 0 0 0 23447 18740 0 106 
5166,26 0 0 0 23233 18760 0 106 
5165,03 0 0 0 22917 18759 0 108 
5164,19 0 0 0 22654 18772 0 106 
5163,34 0 0 0 22596 18784 0 110 
5162,82 0 0 0 22752 18803 0 106 
5162,62 0 0 0 22990 18818 0 108 
5162,33 0 0 0 23150 18859 0 108 
5161,67 0 0 0 23242 18842 0 106 
5160,82 0 0 0 23092 18875 0 107 
5159,63 0 0 0 22951 18884 0 107 
5158,57 0 0 0 22766 18896 0 107 
5157,49 0 0 0 22811 18932 0 110 
5156,36 0 0 0 23022 18934 0 107 
5155,98 0 0 0 23196 18962 0 106 
5155,06 0 0 0 23610 18958 0 106 
5154,03 0 0 0 23959 18963 0 106 
5152,52 0 0 0 23905 18954 0 106 
5150,67 0 0 0 23534 18969 0 109 
5148,55 0 0 0 23090 18947 0 107 
5146,41 0 0 0 23033 18949 0 107 
5144,99 0 0 0 23069 18945 0 107 
5143,59 0 0 0 23163 18930 0 105 
5142,13 0 0 0 23522 18916 0 106 
5140,66 0 0 0 23850 18884 0 108 
5139,23 0 0 0 24024 18856 0 107 
5137,49 0 0 0 24332 18871 0 107 
5136,03 0 0 0 24162 18858 0 107 
5134,43 0 0 0 24088 18862 0 107 
5133,2 0 0 0 24097 18840 0 106 
5132,08 0 0 0 24233 18840 0 108 
5131,06 0 0 0 24335 18835 0 107 
5130,38 0 0 0 24320 18857 0 108 
5129,61 0 0 0 24358 18872 0 106 
5128,76 0 0 0 24265 18869 0 107 
5127,35 0 0 0 23942 18910 0 105 
5126,51 0 0 0 23885 18935 0 106 
5125,63 0 0 0 23964 18984 0 107 
5125,18 0 0 0 23980 19023 0 107 
5124,6 0 0 0 24472 19088 0 106 
5124,11 0 0 0 24693 19112 0 107 
5123,35 0 0 0 24611 19161 0 110 
5123,18 0 0 0 24386 19229 0 110 
5122,69 0 0 0 24129 19270 0 105 
5122,05 0 0 0 23949 19323 0 107 
5121,54 0 0 0 24127 19384 0 107 
5120,45 0 0 0 24240 19499 0 107 
5119,92 0 0 0 24252 19540 0 108 
5119,46 0 0 0 24429 19634 0 108 
5119,62 0 0 0 24712 19694 0 108 
5119,83 0 0 0 24871 19762 0 107 
5120,33 0 0 0 24645 19848 0 108 
5120,52 0 0 0 24385 19918 0 107 
5120,66 0 0 0 24487 20014 0 107 
5120,9 0 0 0 24890 20116 0 108 
5121,27 0 0 0 25428 20184 0 107 
5122 0 0 0 25822 20232 0 107 
5122,45 0 0 0 26042 20351 0 108 
5123,43 0 0 0 25826 20423 0 107 
5123,9 0 0 0 25556 20492 0 107 
5123,96 0 0 0 25321 20583 0 106 
5123,69 0 0 0 25429 20664 0 109 
5123,71 0 0 0 25576 20736 0 107 
5123,72 0 0 0 25961 20785 0 107 
5124,02 0 0 0 26413 20888 0 108 
5124,56 0 0 0 26560 20957 0 106 
5125,01 0 0 0 26598 21025 0 107 
5125,4 0 0 0 26239 21082 0 106 
5125,12 0 0 0 26132 21170 0 108 
5124,93 0 0 0 26268 21230 0 107 
5124,26 0 0 0 26392 21252 0 106 
5123,93 0 0 0 26496 21297 0 106 
5123,81 0 0 0 26663 21374 0 107 
5123,64 0 0 0 26866 21423 0 106 
5123,59 0 0 0 27094 21446 0 106 
5122,88 0 0 0 27049 21480 0 106 
5122,42 0 0 0 26965 21502 0 107 
5121,53 0 0 0 27098 21563 0 106 
5120,75 0 0 0 27154 21554 0 108 
5119,73 0 0 0 27630 21623 0 106 
5119,28 0 0 0 28214 21590 0 105 
5119,35 0 0 0 28536 21637 0 107 
5119,25 0 0 0 28302 21692 0 107 
5118,78 0 0 0 27715 21702 0 108 
5117,32 0 0 0 27391 21720 0 109 
5116,36 0 0 0 27617 21757 0 108 
5115,66 0 0 0 27982 21784 0 107 
5115 0 0 0 28386 21798 0 105 
5114,29 0 0 0 28410 21839 0 107 
5113,69 0 0 0 28226 21856 0 107 
5112,89 0 0 0 28063 21869 0 107 
5111,93 0 0 0 27913 21890 0 107 
5110,88 0 0 0 27490 21896 0 108 
5109,83 0 0 0 26902 21951 0 106 
5108,82 0 0 0 26892 21968 0 107 
5107,77 0 0 0 26861 21970 0 108 
5106,89 0 0 0 26732 21992 0 107 
5106,16 0 0 0 26744 21991 0 108 
5105,78 0 0 0 26294 22022 0 111 
5105,13 0 0 0 25742 22040 0 106 
5104,47 0 0 0 25388 22066 0 108 
5103,31 0 0 0 25288 22110 0 106 
5102,27 0 0 0 25156 22130 0 108 
5101,46 0 0 0 25285 22128 0 107 
5101,25 0 0 0 25151 22182 0 106 
5101,05 0 0 0 24872 22199 0 110 
5100,76 0 0 0 24692 22228 0 109 
5100,51 0 0 0 24134 22244 0 106 
5099,29 0 0 0 23761 22271 0 108 
5098,53 0 0 0 23832 22314 0 106 
5097,55 0 0 0 23887 22337 0 107 
5097,1 0 0 0 24152 22368 0 106 
5096,55 0 0 0 24207 22420 0 107 
5096,45 0 0 0 24300 22481 0 106 
5096,15 0 0 0 24187 22525 0 107 
5095,8 0 0 0 23957 22534 0 107 
5095,1 0 0 0 23754 22621 0 106 
5094,65 0 0 0 23865 22606 0 106 
5094,39 0 0 0 23994 22674 0 109 
5094,08 0 0 0 23784 22694 0 107 
5094,57 0 0 0 23661 22717 0 106 
5094,49 0 0 0 23763 22756 0 106 
5094,84 0 0 0 23528 22786 0 107 
5094,66 0 0 0 23154 22798 0 106 
5094,33 0 0 0 22966 22800 0 107 
5093,95 0 0 0 22910 22837 0 107 
5094,09 0 0 0 23135 22819 0 105 
5094,97 0 0 0 23658 22818 0 107 
5095,85 0 0 0 24073 22788 0 107 
5096,47 0 0 0 24056 22789 0 105 
5096,45 0 0 0 23630 22767 0 110 
5096,64 0 0 0 23320 22757 0 107 
5096,52 0 0 0 23096 22694 0 107 
5097,06 0 0 0 22838 22678 0 107 
5097,96 0 0 0 22809 22671 0 107 
5099,08 0 0 0 23301 22632 0 107 
5100,08 0 0 0 23720 22607 0 107 
5100,22 0 0 0 24026 22576 0 107 
5100,09 0 0 0 24094 22534 0 107 
5099,22 0 0 0 23697 22483 0 107 
5099,03 0 0 0 23201 22435 0 106 
5098,61 0 0 0 22868 22380 0 110 
5098,71 0 0 0 23393 22310 0 106 
5098,28 0 0 0 23965 22264 0 106 
5097,76 0 0 0 24016 22221 0 106 
5096,78 0 0 0 23852 22146 0 109 
5095,22 0 0 0 23783 22096 0 109 
5093,73 0 0 0 23760 22016 0 106 
5092,54 0 0 0 23635 21925 0 106 
5091,92 0 0 0 23752 21854 0 107 
5091,11 0 0 0 23924 21762 0 107 
5090,77 0 0 0 24062 21678 0 107 
5090,25 0 0 0 24089 21594 0 107 
5089,67 0 0 0 24381 21504 0 106 
5088,71 0 0 0 24433 21395 0 109 
5087,63 0 0 0 24002 21330 0 106 
5086,28 0 0 0 23580 21220 0 107 
5085,4 0 0 0 23390 21123 0 106 
5084,89 0 0 0 23672 21034 0 108 
5084,33 0 0 0 24110 20935 0 106 
5083,87 0 0 0 24430 20877 0 107 
5083,08 0 0 0 24477 20776 0 109 
5082,37 0 0 0 24270 20732 0 106 
5081,18 0 0 0 23918 20666 0 108 
5080,21 0 0 0 23814 20616 0 105 
5079,37 0 0 0 23703 20539 0 106 
5078,84 0 0 0 23740 20514 0 110 
5078,41 0 0 0 24318 20445 0 106 
5078,06 0 0 0 24778 20405 0 110 
5077,96 0 0 0 24872 20363 0 106 
5077,14 0 0 0 24624 20344 0 108 
5076,48 0 0 0 24520 20333 0 107 
5075,83 0 0 0 24530 20263 0 107 
5076,2 0 0 0 24641 20257 0 112 
5076,53 0 0 0 24569 20196 0 107 
5077,15 0 0 0 24471 20163 0 106 
5077 0 0 0 24656 20128 0 106 
5076,79 0 0 0 24758 20064 0 108 
5075,8 0 0 0 24418 20054 0 108 
5074,52 0 0 0 24205 20010 0 107 
5074,03 0 0 0 24191 19953 0 106 
5073,39 0 0 0 24164 19879 0 107 
5073,19 0 0 0 24262 19842 0 108 
5072,64 0 0 0 24410 19791 0 108 
5072,91 0 0 0 24662 19722 0 108 
5072,59 0 0 0 24769 19692 0 108 
5072,27 0 0 0 24836 19649 0 105 
5071,82 0 0 0 24282 19602 0 106 
5071,81 0 0 0 23869 19568 0 107 
5072 0 0 0 24248 19468 0 107 
5072,25 0 0 0 24639 19450 0 106 
5072,41 0 0 0 25011 19424 0 108 
5071,92 0 0 0 25264 19373 0 107 
5071,7 0 0 0 25144 19355 0 106 
5070,78 0 0 0 25005 19326 0 106 
5070,6 0 0 0 24934 19292 0 106 
5070,17 0 0 0 24641 19255 0 107 
5070,45 0 0 0 24430 19234 0 106 
5070,76 0 0 0 24620 19218 0 107 
5070,84 0 0 0 24885 19189 0 106 
5070,73 0 0 0 25000 19197 0 108 
5070,21 0 0 0 25020 19153 0 107 
5070,09 0 0 0 24858 19134 0 110 
5070,42 0 0 0 24793 19096 0 106 
5071,05 0 0 0 24764 19072 0 107 
5071,23 0 0 0 24950 19042 0 107 
5071,54 0 0 0 25024 19005 0 106 
5071,19 0 0 0 24977 18964 0 106 
5070,96 0 0 0 24978 18944 0 106 
5070,11 0 0 0 24947 18913 0 105 
5069,78 0 0 0 24758 18910 0 106 
5069,66 0 0 0 24398 18886 0 109 
5069,9 0 0 0 24242 18885 0 106 
5069,87 0 0 0 24572 18864 0 106 
5069,7 0 0 0 24856 18857 0 108 
5069,48 0 0 0 25114 18858 0 108 
5068,68 0 0 0 25178 18852 0 108 
5068,32 0 0 0 25208 18853 0 107 
5067,74 0 0 0 25001 18833 0 107 
5067,9 0 0 0 24768 18828 0 107 
5067,95 0 0 0 24702 18806 0 107 
5067,92 0 0 0 24560 18794 0 107 
5067,46 0 0 0 24542 18800 0 105 
5066,62 0 0 0 24902 18795 0 108 
5065,84 0 0 0 25369 18755 0 107 
5064,99 0 0 0 25357 18735 0 109 
5064,78 0 0 0 24876 18728 0 107 
5064,82 0 0 0 24488 18705 0 110 
5065,32 0 0 0 24460 18719 0 108 
5065,41 0 0 0 24636 18703 0 106 
5065,42 0 0 0 24850 18714 0 106 
5065,12 0 0 0 25237 18675 0 107 
5064,86 0 0 0 25200 18703 0 106 
5064,86 0 0 0 25130 18673 0 106 
5064,54 0 0 0 25215 18673 0 107 
5064,83 0 0 0 25306 18685 0 107 
5064,58 0 0 0 24987 18679 0 107 
5064,16 0 0 0 24616 18676 0 107 
5063,22 0 0 0 24823 18669 0 107 
5062,36 0 0 0 25197 18659 0 107 
5061,67 0 0 0 25304 18673 0 107 
5061,33 0 0 0 25092 18637 0 106 
5061,28 0 0 0 24809 18664 0 106 
5061,06 0 0 0 24599 18654 0 107 
5061,03 0 0 0 24329 18634 0 107 
5060,4 0 0 0 24398 18645 0 107 
5059,69 0 0 0 24610 18626 0 105 
5058,6 0 0 0 25032 18622 0 108 
5057,94 0 0 0 25316 18634 0 106 
5057,17 0 0 0 25542 18642 0 107 
5056,96 0 0 0 25097 18622 0 108 
5056,5 0 0 0 24738 18620 0 109 
5056,19 0 0 0 24577 18627 0 107 
5055,61 0 0 0 24434 18605 0 106 
5054,65 0 0 0 24362 18611 0 107 
5054,19 0 0 0 24836 18622 0 106 
5053,67 0 0 0 25564 18657 0 107 
5053,68 0 0 0 25878 18626 0 105 
5053,52 0 0 0 25664 18638 0 109 
5053,82 0 0 0 25610 18665 0 106 
5054,05 0 0 0 25278 18676 0 109 
5053,86 0 0 0 24722 18670 0 106 
5053,49 0 0 0 24790 18693 0 108 
5052,78 0 0 0 25433 18679 0 106 
5052,68 0 0 0 25648 18706 0 107 
5052,14 0 0 0 25361 18720 0 107 
5052,51 0 0 0 25208 18738 0 106 
5052,75 0 0 0 24925 18736 0 108 
5052,9 0 0 0 24996 18736 0 106 
5052,65 0 0 0 25146 18739 0 107 
5052,23 0 0 0 24922 18751 0 107 
5051,9 0 0 0 25057 18754 0 108 
5051,52 0 0 0 25210 18742 0 108 
5051,64 0 0 0 25378 18714 0 107 
5051,6 0 0 0 25454 18712 0 108 
5051,56 0 0 0 25250 18714 0 107 
5050,84 0 0 0 24884 18684 0 106 
5050,38 0 0 0 24670 18661 0 107 
5049,59 0 0 0 24789 18637 0 107 
5049,39 0 0 0 25120 18606 0 106 
5049,24 0 0 0 25377 18599 0 106 
5048,92 0 0 0 25598 18551 0 109 
5048,63 0 0 0 25486 18538 0 108 
5048,27 0 0 0 25211 18516 0 107 
5047,63 0 0 0 25071 18530 0 108 
5046,85 0 0 0 25061 18512 0 107 
5045,98 0 0 0 25246 18537 0 107 
5045,04 0 0 0 25784 18536 0 107 
5044,53 0 0 0 26155 18529 0 106 
5044,4 0 0 0 26236 18533 0 106 
5044,63 0 0 0 26108 18553 0 106 
5044,54 0 0 0 25823 18590 0 106 
5044,48 0 0 0 25409 18606 0 106 
5043,82 0 0 0 25317 18636 0 106 
5043,21 0 0 0 25362 18616 0 109 
5042,58 0 0 0 25602 18635 0 107 
5042,16 0 0 0 26000 18648 0 107 
5041,88 0 0 0 25959 18662 0 106 
5041,58 0 0 0 25622 18686 0 107 
5041,69 0 0 0 25354 18703 0 107 
5041,31 0 0 0 25270 18706 0 106 
5041,15 0 0 0 25355 18686 0 106 
5040,48 0 0 0 25512 18727 0 107 
5039,94 0 0 0 25641 18725 0 108 
5039,37 0 0 0 25815 18722 0 106 
5039,01 0 0 0 25937 18701 0 106 
5038,96 0 0 0 26026 18729 0 106 
5039,23 0 0 0 25576 18680 0 107 
5039,68 0 0 0 25316 18700 0 106 
5039,98 0 0 0 25076 18693 0 107 
5040,41 0 0 0 24896 18709 0 107 
5040,5 0 0 0 25184 18698 0 109 
5040,57 0 0 0 25429 18694 0 105 
5040,39 0 0 0 25401 18701 0 107 
5040,71 0 0 0 25083 18690 0 106 
5041,19 0 0 0 24823 18678 0 108 
5042,02 0 0 0 24890 18710 0 108 
5042,92 0 0 0 24976 18726 0 106 
5043,64 0 0 0 25041 18720 0 107 
5043,8 0 0 0 25132 18730 0 107 
5044,02 0 0 0 25524 18732 0 107 
5043,8 0 0 0 25649 18729 0 106 
5043,78 0 0 0 25665 18722 0 108 
5044,16 0 0 0 25200 18734 0 106 
5044,25 0 0 0 24594 18689 0 108 
5044,73 0 0 0 24579 18690 0 106 
5044,82 0 0 0 24901 18716 0 107 
5045,11 0 0 0 25104 18694 0 107 
5045,26 0 0 0 25416 18688 0 108 
5045,36 0 0 0 25562 18678 0 109 
5045,6 0 0 0 25351 18707 0 106 
5045,51 0 0 0 24929 18709 0 105 
5045,69 0 0 0 24843 18700 0 106 
5045,4 0 0 0 24849 18682 0 106 
5045,3 0 0 0 24840 18720 0 107 
5044,65 0 0 0 25176 18733 0 107 
5044,27 0 0 0 25727 18772 0 106 
5043,16 0 0 0 25723 18725 0 106 
5042,39 0 0 0 25179 18769 0 105 
5041,53 0 0 0 24386 18747 0 108 
5041,09 0 0 0 23890 18769 0 105 
5040,89 0 0 0 23866 18769 0 107 
5040,39 0 0 0 24480 18792 0 107 
5039,77 0 0 0 25144 18787 0 107 
5039,29 0 0 0 25672 18794 0 106 
5038,97 0 0 0 25797 18807 0 108 
5038,57 0 0 0 25846 18822 0 106 
5038,52 0 0 0 25876 18798 0 108 
5038,19 0 0 0 26438 18821 0 105 
5038,43 0 0 0 27752 18828 0 106 
5038,39 0 0 0 29558 18814 0 107 
5038,35 0 0 0 32315 18828 0 107 
5038,13 0 0 0 35881 18832 0 108 
5037,67 0 0 0 39626 18859 0 106 
5037,1 0 0 0 42344 18850 0 107 
5036,93 0 0 0 43443 18845 0 107 
5036,82 0 0 0 43416 18848 0 106 
5036,49 0 0 0 42615 18845 0 106 
5036,8 0 0 0 40944 18855 0 106 
5036,81 0 0 0 38468 18836 0 107 
5037 0 0 0 35341 18849 0 106 
5036,96 0 0 0 31459 18850 0 107 
5036,98 0 0 0 27964 18852 0 107 
5036,81 0 0 0 25278 18843 0 108 
5036,92 0 0 0 23579 18840 0 107 
5036,95 0 0 0 22658 18848 0 106 
5037,27 0 0 0 22388 18848 0 106 
5037,79 0 0 0 22301 18849 0 107 
5038,52 0 0 0 22218 18873 0 107 
5039,44 0 0 0 22248 18896 0 109 
5039,51 0 0 0 22485 18877 0 106 
5039,59 0 0 0 22478 18904 0 107 
5039,27 0 0 0 22346 18892 0 107 
5039,49 0 0 0 22005 18928 0 107 
5039,85 0 0 0 21868 18946 0 107 
5040,54 0 0 0 22088 18940 0 106 
5040,9 0 0 0 22196 18976 0 108 
5041,12 0 0 0 22228 19019 0 108 
5041,6 0 0 0 22190 19042 0 108 
5041,66 0 0 0 22090 19035 0 106 
5041,96 0 0 0 22158 19052 0 107 
5041,74 0 0 0 22636 19067 0 107 
5041,88 0 0 0 22772 19068 0 106 
5041,52 0 0 0 22712 19090 0 108 
5041,7 0 0 0 22565 19083 0 108 
5042,02 0 0 0 22611 19072 0 106 
5042,43 0 0 0 22856 19084 0 107 
5042,39 0 0 0 22987 19045 0 108 
5042,36 0 0 0 22890 19048 0 110 
5042,18 0 0 0 22966 19030 0 106 
5041,85 0 0 0 22812 19041 0 108 
5041,76 0 0 0 22869 19031 0 109 
5041,6 0 0 0 23012 18992 0 106 
5042,03 0 0 0 23202 18972 0 106 
5042 0 0 0 23412 18956 0 106 
5041,84 0 0 0 23407 18957 0 108 
5040,97 0 0 0 23351 18963 0 108 
5040,66 0 0 0 23365 18918 0 106 
5039,77 0 0 0 23382 18915 0 110 
5038,9 0 0 0 23454 18889 0 107 
5037,94 0 0 0 23576 18848 0 108 
5037,07 0 0 0 23680 18843 0 101 
5036,51 0 0 0 23651 18847 0 108 
5035,52 0 0 0 23382 18858 0 107 
5034,55 0 0 0 23354 18842 0 107 
5033,47 0 0 0 23419 18829 0 107 
5032,28 0 0 0 23284 18844 0 106 
5030,35 0 0 0 23682 18887 0 109 
5028,41 0 0 0 23889 18880 0 107 
5026,2 0 0 0 24076 18881 0 107 
5024,08 0 0 0 24051 18878 0 106 
5022,23 0 0 0 24045 18902 0 105 
5020,55 0 0 0 24020 18891 0 108 
5019,56 0 0 0 24003 18933 0 107 
5018,41 0 0 0 23834 18955 0 107 
5017,48 0 0 0 23973 18966 0 107 
5016,45 0 0 0 24034 18997 0 107 
5015,6 0 0 0 24177 19014 0 101 
5014,38 0 0 0 24589 19020 0 107 
5013,63 0 0 0 24372 19076 0 106 
5013,18 0 0 0 24352 19139 0 106 
5012,96 0 0 0 24440 19124 0 105 
5013,35 0 0 0 24663 19161 0 107 
5013,44 0 0 0 24766 19210 0 106 
5013,43 0 0 0 24902 19239 0 107 
5012,57 0 0 0 24763 19267 0 108 
5011,92 0 0 0 24695 19324 0 108 
5010,74 0 0 0 24609 19372 0 107 
5009,73 0 0 0 24552 19444 0 107 
5008,46 0 0 0 24486 19478 0 110 
5007,75 0 0 0 24425 19563 0 107 
5007,09 0 0 0 24481 19630 0 106 
5006,91 0 0 0 24710 19694 0 106 
5006,95 0 0 0 24996 19765 0 109 
5006,64 0 0 0 24883 19855 0 107 
5006,46 0 0 0 24698 19931 0 106 
5006,18 0 0 0 24646 20043 0 107 
5005,9 0 0 0 24652 20114 0 109 
5005,78 0 0 0 24671 20200 0 105 
5005,86 0 0 0 24836 20288 0 107 
5006,15 0 0 0 25188 20333 0 107 
5007,17 0 0 0 25670 20455 0 108 
5007,9 0 0 0 25867 20552 0 107 
5008,7 0 0 0 26122 20639 0 108 
5009,31 0 0 0 26185 20717 0 107 
5009,81 0 0 0 26316 20804 0 107 
5010,36 0 0 0 26245 20918 0 107 
5011,18 0 0 0 26373 20978 0 108 
5012,56 0 0 0 26220 21048 0 108 
5013,92 0 0 0 25974 21159 0 106 
5015,5 0 0 0 26027 21210 0 107 
5016,83 0 0 0 26073 21284 0 107 
5018,08 0 0 0 26298 21348 0 107 
5019,06 0 0 0 26548 21406 0 107 
5020,11 0 0 0 26580 21444 0 106 
5021,33 0 0 0 26617 21508 0 106 
5022,8 0 0 0 26854 21544 0 107 
5024,22 0 0 0 27165 21573 0 107 
5025,28 0 0 0 27550 21627 0 107 
5026,27 0 0 0 27559 21618 0 106 
5026,56 0 0 0 27249 21660 0 111 
5027,04 0 0 0 26938 21679 0 107 
5027,07 0 0 0 27034 21698 0 106 
5027,62 0 0 0 27632 21715 0 106 
5027,99 0 0 0 27842 21758 0 109 
5028,42 0 0 0 28016 21755 0 108 
5028,57 0 0 0 28014 21784 0 107 
5029,08 0 0 0 27858 21831 0 108 
5029,26 0 0 0 28051 21835 0 107 
5029,28 0 0 0 28062 21846 0 108 
5029,14 0 0 0 28159 21871 0 106 
5028,93 0 0 0 28366 21868 0 107 
5029,26 0 0 0 28564 21901 0 107 
5029,45 0 0 0 28438 21900 0 106 
5030,15 0 0 0 28026 21914 0 107 
5030,53 0 0 0 27801 21932 0 108 
5030,47 0 0 0 27472 21935 0 107 
5029,85 0 0 0 27384 21941 0 109 
5029,18 0 0 0 27362 21994 0 108 
5028,33 0 0 0 27306 22001 0 106 
5027,87 0 0 0 27098 22008 0 107 
5027,43 0 0 0 26718 22042 0 104 
5027,2 0 0 0 26133 22059 0 107 
5026,48 0 0 0 25932 22082 0 106 
5025,95 0 0 0 25545 22081 0 107 
5025,06 0 0 0 25259 22136 0 108 
5024,13 0 0 0 25361 22160 0 106 
5023,22 0 0 0 25578 22167 0 107 
5022,23 0 0 0 25372 22208 0 107 
5021,64 0 0 0 25098 22228 0 104 
5020,81 0 0 0 24834 22276 0 107 
5020,56 0 0 0 24512 22289 0 107 
5019,84 0 0 0 24178 22345 0 108 
5019,12 0 0 0 24032 22380 0 106 
5018,4 0 0 0 24147 22414 0 106 
5017,48 0 0 0 24173 22464 0 107 
5016,6 0 0 0 24108 22501 0 106 
5015,83 0 0 0 23827 22527 0 105 
5015,54 0 0 0 23856 22567 0 109 
5014,94 0 0 0 23769 22619 0 105 
5014,73 0 0 0 23640 22629 0 106 
5014,16 0 0 0 23518 22638 0 107 
5013,57 0 0 0 23402 22685 0 107 
5012,93 0 0 0 23434 22696 0 108 
5012,58 0 0 0 23752 22712 0 107 
5012,44 0 0 0 23851 22723 0 108 
5012,26 0 0 0 23777 22735 0 107 
5012,21 0 0 0 23559 22726 0 107 
5012,1 0 0 0 23269 22735 0 108 
5012,12 0 0 0 23354 22732 0 108 
5011,66 0 0 0 23456 22726 0 109 
5011,66 0 0 0 23613 22724 0 108 
5011,5 0 0 0 23865 22706 0 106 
5011,61 0 0 0 24006 22701 0 107 
5011,64 0 0 0 24074 22673 0 107 
5012,37 0 0 0 23693 22670 0 106 
5012,97 0 0 0 23406 22627 0 111 
5013,64 0 0 0 23118 22616 0 105 
5014,23 0 0 0 23170 22573 0 106 
5014,26 0 0 0 23346 22536 0 106 
5014,41 0 0 0 23800 22502 0 108 
5014,06 0 0 0 23847 22447 0 106 
5014,01 0 0 0 23767 22416 0 107 
5013,56 0 0 0 23805 22352 0 106 
5013,7 0 0 0 23854 22313 0 106 
5013,73 0 0 0 23880 22227 0 106 
5013,48 0 0 0 23781 22180 0 107 
5012,66 0 0 0 23708 22119 0 106 
5011,93 0 0 0 23946 22039 0 108 
5010,75 0 0 0 24107 22003 0 106 
5009,67 0 0 0 23992 21900 0 106 
5008,05 0 0 0 23829 21838 0 109 
5006,74 0 0 0 23848 21740 0 107 
5005,5 0 0 0 23977 21690 0 108 
5004 0 0 0 24102 21597 0 107 
5002,81 0 0 0 24324 21544 0 107 
5001,51 0 0 0 24491 21433 0 107 
5000,61 0 0 0 24410 21340 0 107 
4999,34 0 0 0 24113 21239 0 107 
4998,8 0 0 0 23764 21170 0 107 
4997,75 0 0 0 23648 21070 0 107 
4997,19 0 0 0 23698 20986 0 107 
4996,15 0 0 0 23890 20926 0 106 
4995,14 0 0 0 24213 20844 0 108 
4993,55 0 0 0 24372 20732 0 107 
4992,52 0 0 0 24435 20645 0 106 
4991,81 0 0 0 24448 20578 0 107 
4991,29 0 0 0 24298 20512 0 106 
4991,04 0 0 0 24194 20427 0 106 
4990,5 0 0 0 24140 20397 0 106 
4990,08 0 0 0 24257 20323 0 111 
4989,24 0 0 0 24262 20284 0 110 
4988,87 0 0 0 24334 20228 0 111 
4988,19 0 0 0 24106 20187 0 107 
4988,4 0 0 0 24024 20126 0 106 
4988,59 0 0 0 24186 20110 0 107 
4989,13 0 0 0 24176 20075 0 108 
4989,83 0 0 0 24039 20078 0 107 
4990,51 0 0 0 24186 20043 0 107 
4990,75 0 0 0 24407 20012 0 106 
4991 0 0 0 24658 20011 0 109 
4991,43 0 0 0 24768 19975 0 105 
4991,84 0 0 0 24782 19942 0 107 
4993,08 0 0 0 24692 19917 0 107 
4994,09 0 0 0 24504 19894 0 106 
4995,23 0 0 0 24376 19860 0 108 
4995,77 0 0 0 24318 19825 0 107 
4996,23 0 0 0 24427 19816 0 109 
4996,25 0 0 0 24406 19802 0 107 
4996,54 0 0 0 24472 19748 0 107 
4996,76 0 0 0 24834 19698 0 107 
4997,41 0 0 0 25030 19683 0 108 
4998,47 0 0 0 24992 19637 0 108 
4999,51 0 0 0 25175 19605 0 107 
5000,62 0 0 0 25126 19567 0 107 
5001,52 0 0 0 25058 19527 0 107 
5002,24 0 0 0 24982 19500 0 106 
5002,53 0 0 0 24788 19466 0 107 
5002,94 0 0 0 24654 19427 0 106 
5003,56 0 0 0 24266 19392 0 106 
5004,57 0 0 0 24091 19372 0 108 
5005,03 0 0 0 24302 19356 0 107 
5005,92 0 0 0 24526 19312 0 107 
5006,6 0 0 0 24818 19303 0 108 
5007,39 0 0 0 25044 19255 0 107 
5007,97 0 0 0 25392 19240 0 105 
5008,27 0 0 0 25521 19225 0 107 
5008,42 0 0 0 25190 19199 0 107 
5008,6 0 0 0 24959 19194 0 107 
5009,27 0 0 0 24813 19188 0 107 
5009,72 0 0 0 24721 19197 0 107 
5010,48 0 0 0 24760 19181 0 108 
5010,97 0 0 0 24804 19177 0 109 
5011,5 0 0 0 24914 19169 0 107 
5011,94 0 0 0 24898 19142 0 106 
5012,18 0 0 0 24893 19116 0 107 
5012,26 0 0 0 24946 19111 0 108 
5012,21 0 0 0 24996 19084 0 106 
5012,16 0 0 0 25002 19072 0 107 
5011,95 0 0 0 24898 19058 0 106 
5012,48 0 0 0 24892 19071 0 108 
5012,57 0 0 0 25138 19034 0 108 
5013,1 0 0 0 25378 19034 0 108 
5013,19 0 0 0 25237 18996 0 107 
5013,16 0 0 0 25096 18970 0 108 
5012,76 0 0 0 25180 18974 0 107 
5012,24 0 0 0 25019 18917 0 108 
5012,05 0 0 0 24919 18932 0 107 
5011,32 0 0 0 24602 18913 0 107 
5011,03 0 0 0 24517 18883 0 107 
5010,86 0 0 0 24368 18874 0 106 
5010,76 0 0 0 24331 18849 0 108 
5010,18 0 0 0 24476 18848 0 106 
5009,76 0 0 0 24512 18869 0 106 
5008,95 0 0 0 24677 18875 0 108 
5008,34 0 0 0 25094 18860 0 107 
5007,71 0 0 0 25134 18881 0 107 
5007,3 0 0 0 25196 18870 0 107 
5007,07 0 0 0 25076 18888 0 105 
5007,25 0 0 0 24804 18904 0 106 
5007,91 0 0 0 24836 18885 0 107 
5008,64 0 0 0 25058 18869 0 107 
5008,85 0 0 0 25061 18852 0 106 
5009,07 0 0 0 24955 18846 0 107 
5009,26 0 0 0 25098 18822 0 107 
5009,52 0 0 0 25441 18796 0 106 
5010,05 0 0 0 25308 18794 0 106 
5010,55 0 0 0 25092 18766 0 107 
5011,6 0 0 0 24820 18718 0 107 
5012,66 0 0 0 24693 18708 0 107 
5013,91 0 0 0 24710 18670 0 106 
5015 0 0 0 24951 18652 0 106 
5015,78 0 0 0 25326 18631 0 107 
5016,43 0 0 0 25299 18614 0 106 
5017,32 0 0 0 25184 18617 0 108 
5018,43 0 0 0 24946 18596 0 109 
5019,56 0 0 0 24958 18608 0 106 
5021 0 0 0 25069 18592 0 105 
5022,49 0 0 0 25130 18589 0 108 
5024,3 0 0 0 25298 18593 0 107 
5025,38 0 0 0 25344 18582 0 107 
5026,66 0 0 0 25424 18599 0 109 
5027,41 0 0 0 25392 18589 0 106 
5028,36 0 0 0 25204 18610 0 107 
5029,14 0 0 0 25037 18583 0 107 
5029,96 0 0 0 25190 18595 0 107 
5031,36 0 0 0 25110 18604 0 106 
5033,07 0 0 0 25107 18615 0 107 
5035,09 0 0 0 24979 18624 0 107 
5036,02 0 0 0 24896 18629 0 108 
5036,88 0 0 0 25242 18636 0 108 
5037,35 0 0 0 25312 18653 0 106 
5038,21 0 0 0 25108 18656 0 106 
5039,08 0 0 0 24932 18691 0 106 
5040,14 0 0 0 24884 18690 0 107 
5041,28 0 0 0 25051 18670 0 106 
5042,03 0 0 0 25220 18684 0 106 
5043,23 0 0 0 25226 18716 0 110 
5044,03 0 0 0 25297 18696 0 108 
5044,9 0 0 0 25140 18714 0 106 
5045,39 0 0 0 24770 18722 0 107 
5046,02 0 0 0 24569 18695 0 109 
5046,7 0 0 0 24724 18699 0 107 
5047,69 0 0 0 24953 18729 0 108 
5048,24 0 0 0 25027 18715 0 107 
5049,17 0 0 0 25270 18726 0 107 
5049,54 0 0 0 25538 18698 0 107 
5050,17 0 0 0 25499 18711 0 107 
5050,32 0 0 0 25218 18725 0 108 
5050,17 0 0 0 24994 18731 0 109 
5049,9 0 0 0 25067 18733 0 107 
5049,62 0 0 0 25022 18734 0 108 
5049,71 0 0 0 24838 18720 0 105 
5050,01 0 0 0 24921 18698 0 105 
5050,71 0 0 0 25117 18704 0 106 
5050,82 0 0 0 25051 18717 0 108 
5050,41 0 0 0 25115 18697 0 106 
5049,91 0 0 0 25160 18712 0 108 
5049,63 0 0 0 25610 18720 0 106 
5049,55 0 0 0 26094 18737 0 107 
5049,54 0 0 0 26012 18744 0 107 
5049,72 0 0 0 25790 18710 0 106 
5049,92 0 0 0 25492 18718 0 106 
5050,16 0 0 0 25547 18747 0 107 
5050,22 0 0 0 25642 18736 0 107 
5050,42 0 0 0 25611 18752 0 108 
5050,4 0 0 0 25542 18760 0 106 
5050,56 0 0 0 25749 18749 0 105 
5049,87 0 0 0 25685 18720 0 107 
5049,39 0 0 0 25456 18747 0 100 
5048,72 0 0 0 25154 18770 0 108 
5048,61 0 0 0 24896 18762 0 107 
5048,99 0 0 0 24759 18761 0 107 
5049,23 0 0 0 24975 18741 0 107 
5049,83 0 0 0 25284 18770 0 109 
5049,7 0 0 0 25402 18761 0 107 
5049,74 0 0 0 25672 18788 0 107 
5049,26 0 0 0 25634 18780 0 108 
5049,23 0 0 0 25318 18767 0 108 
5048,79 0 0 0 24846 18776 0 106 
5048,93 0 0 0 24840 18730 0 107 
5049,09 0 0 0 24860 18762 0 108 
5049,6 0 0 0 24824 18748 0 107 
5049,61 0 0 0 24938 18745 0 107 
5049,69 0 0 0 25029 18741 0 106 
5049,89 0 0 0 24885 18758 0 109 
5049,71 0 0 0 24877 18751 0 107 
5049,59 0 0 0 24732 18752 0 106 
5049,81 0 0 0 24484 18758 0 107 
5050,09 0 0 0 24409 18783 0 108 
5050,53 0 0 0 24843 18785 0 106 
5051,2 0 0 0 25258 18785 0 108 
5051,48 0 0 0 25431 18789 0 106 
5052,35 0 0 0 25392 18811 0 108 
5052,95 0 0 0 25317 18813 0 106 
5053,62 0 0 0 25073 18828 0 106 
5053,98 0 0 0 24482 18815 0 106 
5054,29 0 0 0 24464 18816 0 106 
5054,73 0 0 0 24798 18823 0 106 
5055,33 0 0 0 24903 18773 0 108 
5056,15 0 0 0 25038 18787 0 107 
5057,06 0 0 0 25048 18752 0 106 
5058,5 0 0 0 24978 18759 0 105 
5059,25 0 0 0 24788 18729 0 108 
5060,11 0 0 0 24560 18745 0 104 
5060,55 0 0 0 24259 18739 0 108 
5061,03 0 0 0 24428 18746 0 107 
5061,3 0 0 0 24546 18748 0 107 
5061,83 0 0 0 24553 18756 0 106 
5062,35 0 0 0 24553 18774 0 106 
5063,31 0 0 0 24812 18791 0 108 
5064,28 0 0 0 24988 18790 0 108 
5064,76 0 0 0 25089 18809 0 108 
5065,01 0 0 0 25367 18824 0 108 
5064,59 0 0 0 26076 18837 0 107 
5064,38 0 0 0 27190 18872 0 108 
5064,09 0 0 0 28808 18843 0 108 
5064,18 0 0 0 31176 18862 0 105 
5064,37 0 0 0 34052 18867 0 105 
5064,93 0 0 0 37032 18894 0 106 
5065,48 0 0 0 39926 18887 0 106 
5066,16 0 0 0 42162 18904 0 110 
5066,71 0 0 0 42960 18872 0 106 
5067,04 0 0 0 43069 18893 0 107 
5066,99 0 0 0 41954 18895 0 106 
5066,92 0 0 0 39634 18878 0 106 
5067,34 0 0 0 36518 18893 0 106 
5067,72 0 0 0 32870 18864 0 107 
5068,97 0 0 0 28811 18881 0 106 
5069,54 0 0 0 25594 18872 0 108 
5070,43 0 0 0 23620 18875 0 107 
5071,01 0 0 0 22648 18848 0 106 
5071,81 0 0 0 21971 18862 0 107 
5072,34 0 0 0 21534 18878 0 104 
5072,87 0 0 0 21414 18907 0 107 
5073,45 0 0 0 21310 18927 0 106 
5073,96 0 0 0 21327 18915 0 107 
5074,98 0 0 0 21759 18908 0 107 
5076,06 0 0 0 22341 18924 0 107 
5077,64 0 0 0 22905 18934 0 106 
5078,5 0 0 0 23026 18966 0 106 
5079,43 0 0 0 22950 18970 0 107 
5079,61 0 0 0 22896 18984 0 108 
5080,07 0 0 0 22840 19001 0 107 
5080,47 0 0 0 22666 19000 0 106 
5080,84 0 0 0 22536 19051 0 105 
5081,07 0 0 0 22412 19027 0 108 
5081,04 0 0 0 22227 19042 0 108 
5081,39 0 0 0 22238 19036 0 106 
5081,42 0 0 0 22235 19024 0 105 
5081,83 0 0 0 22379 19053 0 106 
5081,64 0 0 0 22448 19052 0 106 
5081,52 0 0 0 22321 19057 0 108 
5080,85 0 0 0 22346 19030 0 107 
5080,85 0 0 0 22927 19040 0 107 
5080,65 0 0 0 23391 19033 0 107 
5080,65 0 0 0 23610 19004 0 106 
5080,39 0 0 0 23686 19006 0 107 
5080,58 0 0 0 23534 18993 0 106 
5080,55 0 0 0 23337 18986 0 106 
5080,78 0 0 0 22858 18970 0 106 
5080,91 0 0 0 22777 18983 0 108 
5080,89 0 0 0 23241 18969 0 107 
5080,4 0 0 0 23776 18962 0 106 
5079,58 0 0 0 24039 18917 0 107 
5078,66 0 0 0 23810 18945 0 110 
5077,67 0 0 0 23546 18926 0 107 
5077,63 0 0 0 23454 18930 0 109 
5077,52 0 0 0 23240 18896 0 107 
5077,48 0 0 0 23338 18904 0 107 
5076,66 0 0 0 23660 18918 0 107 
5075,86 0 0 0 23907 18903 0 108 
5074,72 0 0 0 23972 18928 0 107 
5073,5 0 0 0 23876 18889 0 108 
5072,29 0 0 0 23837 18900 0 107 
5071,31 0 0 0 23560 18902 0 107 
5070,35 0 0 0 23202 18904 0 107 
5069,82 0 0 0 23483 18912 0 109 
5069,14 0 0 0 23752 18928 0 108 
5068,5 0 0 0 24225 18930 0 107 
5067,68 0 0 0 24282 18939 0 107 
5066,9 0 0 0 24023 18964 0 108 
5066,11 0 0 0 23804 18968 0 107 
5065,61 0 0 0 23751 18983 0 107 
5065,4 0 0 0 23752 19010 0 107 
5065,21 0 0 0 23740 19025 0 106 
5065,61 0 0 0 23852 19043 0 107 
5066,11 0 0 0 24026 19082 0 110 
5066,89 0 0 0 24526 19101 0 106 
5066,99 0 0 0 24513 19116 0 106 
5067,35 0 0 0 24326 19175 0 107 
5066,72 0 0 0 24150 19202 0 108 
5066,44 0 0 0 24192 19266 0 107 
5066,32 0 0 0 24603 19308 0 106 
5066,33 0 0 0 24874 19378 0 105 
5065,97 0 0 0 24862 19405 0 108 
5065,97 0 0 0 24978 19473 0 106 
5066,39 0 0 0 25086 19550 0 104 
5066,86 0 0 0 25193 19622 0 107 
5067,37 0 0 0 24817 19700 0 106 
5067,25 0 0 0 24532 19776 0 108 
5067,35 0 0 0 24458 19884 0 106 
5067,35 0 0 0 24533 20000 0 107 
5068,11 0 0 0 24892 20071 0 108 
5069,04 0 0 0 25287 20167 0 107 
5070,33 0 0 0 25410 20276 0 107 
5071,46 0 0 0 25328 20371 0 108 
5072,59 0 0 0 25126 20455 0 107 
5073,45 0 0 0 25118 20526 0 107 
5074,65 0 0 0 25232 20618 0 107 
5075,38 0 0 0 25209 20711 0 107 
5076,07 0 0 0 25609 20797 0 108 
5076,95 0 0 0 25830 20844 0 108 
5078,1 0 0 0 26072 20941 0 107 
5079,47 0 0 0 26263 21009 0 107 
5080,92 0 0 0 26280 21116 0 107 
5082,55 0 0 0 26148 21148 0 107 
5083,73 0 0 0 25929 21212 0 106 
5084,85 0 0 0 25971 21292 0 108 
5085,41 0 0 0 26188 21313 0 105 
5086,22 0 0 0 26748 21372 0 106 
5086,81 0 0 0 26971 21393 0 107 
5088,09 0 0 0 27046 21464 0 107 
5088,96 0 0 0 27126 21475 0 107 
5090,05 0 0 0 26846 21546 0 107 
5090,64 0 0 0 26912 21567 0 106 
5091,04 0 0 0 27316 21599 0 106 
5090,94 0 0 0 27730 21618 0 106 
5090,93 0 0 0 28250 21639 0 106 
5091,05 0 0 0 28468 21656 0 107 
5091,25 0 0 0 28661 21702 0 108 
5091,68 0 0 0 28666 21724 0 106 
5091,67 0 0 0 28239 21747 0 108 
5091,59 0 0 0 27878 21757 0 107 
5090,96 0 0 0 27668 21788 0 108 
5090,62 0 0 0 27718 21819 0 108 
5090,04 0 0 0 27800 21823 0 107 
5089,51 0 0 0 28002 21834 0 107 
5088,69 0 0 0 28071 21842 0 108 
5088,31 0 0 0 28002 21862 0 107 
5087,93 0 0 0 27868 21864 0 108 
5087,62 0 0 0 27792 21882 0 106 
5087,23 0 0 0 27621 21900 0 107 
5086,56 0 0 0 27692 21892 0 108 
5086,06 0 0 0 27714 21890 0 106 
5085,42 0 0 0 27683 21903 0 105 
5084,97 0 0 0 27424 21936 0 107 
5084,55 0 0 0 26870 21944 0 106 
5084,75 0 0 0 26195 21946 0 107 
5084,94 0 0 0 25866 21979 0 107 
5085,55 0 0 0 25736 21994 0 106 
5086,05 0 0 0 25740 22053 0 110 
5086,35 0 0 0 25779 22078 0 107 
5086,13 0 0 0 25745 22093 0 107 
5085,66 0 0 0 25420 22136 0 107 
5085,08 0 0 0 24923 22168 0 105 
5084,79 0 0 0 24158 22212 0 107 
5085,06 0 0 0 24137 22232 0 106 
5085,43 0 0 0 24484 22236 0 108 
5085,9 0 0 0 24547 22280 0 108 
5086,22 0 0 0 24731 22289 0 107 
5086,71 0 0 0 24768 22341 0 106 
5086,69 0 0 0 24494 22347 0 107 
5086,73 0 0 0 24094 22362 0 107 
5086,35 0 0 0 23812 22341 0 108 
5086,32 0 0 0 23972 22381 0 108 
5086,42 0 0 0 23935 22378 0 108 
5086,89 0 0 0 23914 22400 0 108 
5087,03 0 0 0 23876 22391 0 107 
5087,53 0 0 0 23620 22413 0 107 
5088,2 0 0 0 23801 22434 0 108 
5088,69 0 0 0 23574 22451 0 107 
5088,83 0 0 0 23160 22451 0 108 
5088,9 0 0 0 22998 22460 0 108 
5089,11 0 0 0 23400 22420 0 107 
5089,14 0 0 0 23795 22457 0 107 
5089,75 0 0 0 23648 22470 0 108 
5090,21 0 0 0 23656 22444 0 112 
5091,2 0 0 0 23542 22460 0 106 
5091,78 0 0 0 23238 22446 0 107 
5092,71 0 0 0 23034 22434 0 107 
5093,34 0 0 0 22853 22418 0 107 
5094,07 0 0 0 22961 22424 0 106 
5094,42 0 0 0 23366 22401 0 106 
5094,55 0 0 0 23886 22365 0 107 
5094,46 0 0 0 24303 22356 0 106 
5094,91 0 0 0 24185 22330 0 107 
5095,38 0 0 0 23820 22322 0 106 
5095,94 0 0 0 23569 22288 0 107 
5096,17 0 0 0 23452 22251 0 105 
5096,21 0 0 0 23455 22246 0 107 
5096,22 0 0 0 23619 22220 0 106 
5095,86 0 0 0 23866 22162 0 107 
5095,24 0 0 0 24115 22136 0 110 
5094,52 0 0 0 24106 22080 0 107 
5094,1 0 0 0 23470 22036 0 108 
5093,33 0 0 0 23161 21992 0 107 
5092,73 0 0 0 23402 21948 0 106 
5092,13 0 0 0 23895 21872 0 105 
5092,49 0 0 0 24265 21782 0 106 
5092,41 0 0 0 24488 21728 0 108 
5092,53 0 0 0 24200 21633 0 107 
5092,05 0 0 0 23988 21536 0 106 
5091,57 0 0 0 23926 21471 0 108 
5091,18 0 0 0 23848 21373 0 106 
5090,86 0 0 0 23898 21291 0 108 
5090,7 0 0 0 23876 21192 0 105 
5090,99 0 0 0 24106 21120 0 106 
5091,08 0 0 0 24206 21020 0 107 
5091,24 0 0 0 24410 20936 0 105 
5091,49 0 0 0 24607 20880 0 107 
5091,45 0 0 0 24496 20806 0 107 
5091,03 0 0 0 23898 20718 0 107 
5090,32 0 0 0 23606 20630 0 106 
5089,69 0 0 0 23666 20593 0 109 
5088,77 0 0 0 23914 20517 0 108 
5088,45 0 0 0 24336 20451 0 110 
5088,07 0 0 0 24336 20422 0 106 
5088,24 0 0 0 24317 20349 0 108 
5088,31 0 0 0 24144 20309 0 108 
5088,72 0 0 0 24032 20245 0 108 
5088,42 0 0 0 24134 20195 0 107 
5088,42 0 0 0 24308 20156 0 106 
5088,49 0 0 0 24641 20128 0 106 
5088,39 0 0 0 24662 20075 0 106 
5088,38 0 0 0 24464 20037 0 107 
5088,11 0 0 0 24394 19992 0 107 
5088,46 0 0 0 24428 19960 0 107 
5088,87 0 0 0 24324 19920 0 106 
5089,52 0 0 0 24594 19893 0 107 
5089,79 0 0 0 24682 19854 0 107 
5090,07 0 0 0 24852 19850 0 109 
5090,22 0 0 0 25013 19796 0 108 
5090,33 0 0 0 25018 19777 0 108 
5090,73 0 0 0 24770 19758 0 106 
5091,18 0 0 0 24280 19742 0 107 
5091,74 0 0 0 24004 19720 0 106 
5092,28 0 0 0 24075 19694 0 109 
5092,73 0 0 0 24456 19654 0 106 
5093,42 0 0 0 24588 19658 0 107 
5094,05 0 0 0 24746 19612 0 106 
5094,38 0 0 0 24855 19614 0 107 
5094,76 0 0 0 24896 19588 0 106 
5094,41 0 0 0 24644 19555 0 107 
5094,47 0 0 0 24388 19546 0 106 
5094,11 0 0 0 24462 19498 0 106 
5094,49 0 0 0 24800 19465 0 106 
5094,72 0 0 0 25110 19475 0 106 
5095,34 0 0 0 25294 19400 0 108 
5095,83 0 0 0 25034 19408 0 107 
5095,98 0 0 0 24732 19359 0 107 
5095,84 0 0 0 24518 19347 0 106 
5095,7 0 0 0 24280 19298 0 106 
5095,29 0 0 0 24224 19292 0 106 
5095,23 0 0 0 24657 19276 0 108 
5094,94 0 0 0 25137 19266 0 107 
5094,56 0 0 0 25432 19235 0 106 
5094,31 0 0 0 25257 19237 0 105 
5094,07 0 0 0 24840 19264 0 107 
5094,22 0 0 0 24532 19230 0 109 
5093,65 0 0 0 24178 19225 0 106 
5093,47 0 0 0 24161 19212 0 108 
5092,75 0 0 0 24346 19185 0 107 
5092,43 0 0 0 24555 19165 0 106 
5091,6 0 0 0 24642 19144 0 108 
5090,69 0 0 0 24790 19143 0 107 
5089,65 0 0 0 24836 19134 0 107 
5088,64 0 0 0 24491 19093 0 105 
5088,15 0 0 0 24334 19107 0 106 
5087,74 0 0 0 24197 19087 0 107 
5088,14 0 0 0 24168 19076 0 107 
5088,11 0 0 0 24046 19048 0 107 
5088,46 0 0 0 24487 19032 0 108 
5088,15 0 0 0 24731 19036 0 106 
5087,71 0 0 0 24848 19038 0 106 
5086,94 0 0 0 24822 18997 0 108 
5086,45 0 0 0 24534 18978 0 106 
5085,79 0 0 0 24311 18965 0 108 
5085,81 0 0 0 24270 18963 0 111 
5085,84 0 0 0 24733 18948 0 106 
5085,62 0 0 0 25089 18923 0 107 
5085,76 0 0 0 24898 18908 0 108 
5085,58 0 0 0 24457 18868 0 107 
5085,53 0 0 0 24676 18856 0 107 
5085,11 0 0 0 24587 18861 0 106 
5084,23 0 0 0 24614 18824 0 108 
5083,38 0 0 0 24792 18823 0 106 
5082,89 0 0 0 24918 18810 0 110 
5082,48 0 0 0 24830 18822 0 107 
5082,38 0 0 0 24608 18787 0 106 
5081,92 0 0 0 24628 18804 0 107 
5081,61 0 0 0 24708 18782 0 106 
5080,95 0 0 0 24596 18752 0 108 
5080,57 0 0 0 24603 18765 0 108 
5079,72 0 0 0 24772 18757 0 106 
5079,42 0 0 0 25176 18736 0 107 
5078,5 0 0 0 25056 18745 0 107 
5078,02 0 0 0 24580 18752 0 107 
5077,53 0 0 0 24462 18697 0 107 
5077,23 0 0 0 24274 18672 0 107 
5076,99 0 0 0 23998 18682 0 107 
5076,67 0 0 0 24014 18652 0 105 
5076,14 0 0 0 24261 18650 0 107 
5075,62 0 0 0 24724 18644 0 107 
5075,04 0 0 0 24845 18629 0 108 
5074,45 0 0 0 24820 18640 0 104 
5073,47 0 0 0 24833 18638 0 107 
5072,69 0 0 0 24687 18632 0 106 
5072,46 0 0 0 24442 18581 0 106 
5072,23 0 0 0 24286 18585 0 107 
5072,42 0 0 0 23996 18620 0 106 
5071,95 0 0 0 24043 18590 0 107 
5071,53 0 0 0 24761 18603 0 107 
5070,6 0 0 0 25259 18614 0 107 
5069,81 0 0 0 25206 18603 0 106 
5068,91 0 0 0 25002 18618 0 107 
5068,33 0 0 0 24815 18637 0 108 
5067,53 0 0 0 24537 18632 0 107 
5066,83 0 0 0 24455 18639 0 106 
5066,52 0 0 0 24609 18635 0 109 
5066,5 0 0 0 24810 18640 0 106 
5066,32 0 0 0 25052 18647 0 108 
5065,8 0 0 0 25138 18679 0 108 
5065,17 0 0 0 24963 18661 0 108 
5064,44 0 0 0 24761 18667 0 107 
5064,3 0 0 0 24761 18682 0 107 
5063,81 0 0 0 25050 18697 0 107 
5064,12 0 0 0 25069 18723 0 107 
5063,96 0 0 0 25000 18722 0 107 
5064,26 0 0 0 24720 18708 0 109 
5064,36 0 0 0 24414 18724 0 107 
5064,44 0 0 0 24492 18683 0 107 
5064,13 0 0 0 24396 18724 0 105 
5063,83 0 0 0 24033 18708 0 108 
5063,43 0 0 0 24262 18718 0 107 
5063,36 0 0 0 24660 18736 0 108 
5063,31 0 0 0 25074 18736 0 108 
5063,06 0 0 0 25336 18741 0 108 
5062,96 0 0 0 25472 18769 0 106 
5063,14 0 0 0 25341 18740 0 109 
5063,62 0 0 0 25246 18757 0 108 
5063,9 0 0 0 25243 18760 0 105 
5064,26 0 0 0 25318 18766 0 108 
5064,28 0 0 0 25816 18770 0 107 
5064,24 0 0 0 25965 18780 0 108 
5063,9 0 0 0 25669 18785 0 106 
5064,04 0 0 0 25292 18766 0 107 
5063,79 0 0 0 24954 18793 0 107 
5063,88 0 0 0 24750 18789 0 106 
5063,82 0 0 0 24746 18796 0 106 
5064,27 0 0 0 24883 18805 0 108 
5064,35 0 0 0 24883 18795 0 107 
5064,47 0 0 0 24893 18829 0 108 
5064,37 0 0 0 25250 18850 0 107 
5064,06 0 0 0 25344 18852 0 109 
5063,79 0 0 0 25172 18872 0 107 
5063,23 0 0 0 24767 18878 0 107 
5063,36 0 0 0 24514 18876 0 107 
5063,25 0 0 0 24412 18889 0 107 
5063,41 0 0 0 24642 18878 0 107 
5063,17 0 0 0 24942 18888 0 105 
5062,92 0 0 0 24900 18914 0 108 
5062,29 0 0 0 24956 18904 0 108 
5061,67 0 0 0 24951 18930 0 109 
5061,09 0 0 0 24929 18900 0 108 
5060,78 0 0 0 24970 18876 0 107 
5060,35 0 0 0 24785 18888 0 107 
5059,96 0 0 0 24594 18878 0 108 
5059,69 0 0 0 24886 18864 0 107 
5058,89 0 0 0 24893 18852 0 106 
5058,37 0 0 0 24640 18836 0 106 
5057,43 0 0 0 24539 18807 0 106 
5056,55 0 0 0 24283 18800 0 108 
5055,78 0 0 0 24283 18820 0 106 
5055,61 0 0 0 24524 18793 0 108 
5054,91 0 0 0 24902 18774 0 108 
5054,25 0 0 0 25034 18752 0 107 
5053,03 0 0 0 25038 18749 0 107 
5052,05 0 0 0 24960 18753 0 107 
5050,64 0 0 0 24626 18757 0 107 
5049,78 0 0 0 24436 18734 0 106 
5049,01 0 0 0 24336 18720 0 108 
5048,36 0 0 0 24300 18734 0 107 
5047,06 0 0 0 24334 18709 0 106 
5045,97 0 0 0 24444 18715 0 107 
5044,3 0 0 0 24658 18686 0 107 
5042,84 0 0 0 24713 18685 0 108 
5041,42 0 0 0 24677 18709 0 107 
5040,37 0 0 0 24491 18675 0 107 
5039,04 0 0 0 24408 18692 0 107 
5038,45 0 0 0 24708 18698 0 107 
5037,73 0 0 0 24884 18719 0 109 
5036,61 0 0 0 25302 18714 0 107 
5035,2 0 0 0 25417 18737 0 107 
5033,76 0 0 0 25228 18754 0 107 
5032,81 0 0 0 25012 18748 0 109 
5031,76 0 0 0 24982 18772 0 108 
5031,2 0 0 0 25470 18776 0 107 
5030,49 0 0 0 26534 18800 0 106 
5030,16 0 0 0 28340 18796 0 106 
5029,53 0 0 0 30988 18770 0 107 
5028,9 0 0 0 33866 18804 0 106 
5027,88 0 0 0 37230 18788 0 108 
5026,78 0 0 0 39922 18766 0 106 
5025,93 0 0 0 41537 18775 0 109 
5024,99 0 0 0 42334 18750 0 107 
5024,76 0 0 0 42090 18761 0 106 
5024,63 0 0 0 41074 18743 0 107 
5024,67 0 0 0 39052 18772 0 107 
5024,23 0 0 0 36225 18740 0 107 
5023,89 0 0 0 32729 18758 0 107 
5023,21 0 0 0 29051 18738 0 106 
5022,74 0 0 0 25592 18759 0 106 
5022,29 0 0 0 23340 18767 0 107 
5022,35 0 0 0 21863 18759 0 108 
5022,26 0 0 0 21433 18768 0 108 
5022,42 0 0 0 21585 18789 0 106 
5022,5 0 0 0 21870 18784 0 105 
5022,81 0 0 0 21934 18802 0 107 
5023,25 0 0 0 21863 18801 0 108 
5023,46 0 0 0 21613 18840 0 106 
5023,83 0 0 0 21574 18796 0 107 
5023,82 0 0 0 21413 18823 0 106 
5024,02 0 0 0 21578 18828 0 106 
5024,36 0 0 0 21897 18841 0 108 
5025,17 0 0 0 22582 18816 0 108 
5026,08 0 0 0 22810 18842 0 107 
5026,9 0 0 0 22743 18854 0 105 
5027,21 0 0 0 22686 18830 0 105 
5027,86 0 0 0 22664 18885 0 106 
5028,03 0 0 0 22661 18888 0 106 
5027,93 0 0 0 22642 18900 0 106 
5027,71 0 0 0 22838 18940 0 107 
5027,66 0 0 0 23042 18962 0 107 
5027,46 0 0 0 23221 18936 0 107 
5027,67 0 0 0 22802 18988 0 106 
5027,81 0 0 0 22389 19009 0 107 
5027,85 0 0 0 22346 19016 0 107 
5027,69 0 0 0 22568 19046 0 107 
5027,08 0 0 0 22824 19034 0 107 
5026,3 0 0 0 22964 19064 0 106 
5025,04 0 0 0 23215 19085 0 107 
5024,31 0 0 0 23121 19102 0 108 
5023,57 0 0 0 23045 19092 0 107 
5023,53 0 0 0 22923 19111 0 108 
5023,06 0 0 0 22790 19088 0 106 
5022,81 0 0 0 22882 19100 0 108 
5021,73 0 0 0 23142 19108 0 108 
5021 0 0 0 23363 19115 0 106 
5019,58 0 0 0 23544 19098 0 109 
5017,85 0 0 0 23514 19114 0 107 
5016,07 0 0 0 23596 19072 0 107 
5014,39 0 0 0 23280 19075 0 107 
5012,68 0 0 0 23130 19081 0 107 
5011,07 0 0 0 23533 19055 0 105 
5009,2 0 0 0 23973 19054 0 108 
5007,49 0 0 0 23954 19051 0 107 
5005,28 0 0 0 23785 19071 0 107 
5003,52 0 0 0 23587 19062 0 106 
5001,51 0 0 0 23354 19051 0 109 
4999,37 0 0 0 23239 19056 0 108 
4997,11 0 0 0 23153 19049 0 107 
4994,82 0 0 0 23145 19058 0 106 
4992,73 0 0 0 23627 19054 0 106 
4991,1 0 0 0 23968 19032 0 108 
4989,53 0 0 0 24391 19062 0 104 
4988,3 0 0 0 24822 19060 0 107 
4986,88 0 0 0 24709 19062 0 106 
4985,35 0 0 0 24471 19044 0 106 
4983,99 0 0 0 24206 19084 0 107 
4982,18 0 0 0 24136 19119 0 107 
4980,35 0 0 0 24134 19122 0 108 
4978,29 0 0 0 24385 19170 0 106 
4976,67 0 0 0 24478 19182 0 107 
4974,75 0 0 0 24666 19266 0 107 
4973,44 0 0 0 24853 19299 0 106 
4971,67 0 0 0 24624 19331 0 108 
4970,72 0 0 0 24145 19346 0 107 
4969,43 0 0 0 24153 19430 0 107 
4968,27 0 0 0 24523 19478 0 106 
4966,39 0 0 0 24820 19554 0 106 
4964,64 0 0 0 24968 19607 0 101 
4962,79 0 0 0 25067 19698 0 108 
4961,64 0 0 0 24949 19762 0 108 
4960,32 0 0 0 24760 19828 0 107 
4959,55 0 0 0 24774 19898 0 107 
4958,48 0 0 0 24918 19989 0 104 
4957,81 0 0 0 25078 20096 0 109 
4957,22 0 0 0 25574 20172 0 107 
4956,99 0 0 0 25958 20235 0 106 
4957,03 0 0 0 25948 20368 0 107 
4956,81 0 0 0 25856 20408 0 108 
4957,11 0 0 0 25691 20504 0 106 
4957,09 0 0 0 25644 20600 0 106 
4957,31 0 0 0 25629 20671 0 107 
4957,36 0 0 0 25396 20774 0 107 
4958,21 0 0 0 25220 20843 0 106 
4958,83 0 0 0 25770 20945 0 109 
4960,12 0 0 0 26336 20998 0 108 
4961,67 0 0 0 26489 21050 0 106 
4962,89 0 0 0 26083 21137 0 106 
4963,77 0 0 0 26071 21231 0 108 
4964,21 0 0 0 26546 21254 0 110 
4964,78 0 0 0 26695 21338 0 107 
4965,31 0 0 0 26943 21379 0 108 
4966,22 0 0 0 26938 21434 0 107 
4966,77 0 0 0 26673 21446 0 107 
4967,51 0 0 0 26662 21496 0 107 
4967,96 0 0 0 26986 21530 0 107 
4968,82 0 0 0 27612 21562 0 110 
4969,06 0 0 0 27846 21558 0 107 
4969,63 0 0 0 27974 21638 0 106 
4969,77 0 0 0 28154 21620 0 107 
4969,56 0 0 0 28398 21640 0 107 
4969,09 0 0 0 28522 21625 0 108 
4969,1 0 0 0 28437 21669 0 108 
4968,96 0 0 0 28164 21686 0 107 
4968,83 0 0 0 28170 21679 0 106 
4968,73 0 0 0 28168 21695 0 109 
4968,64 0 0 0 27954 21717 0 106 
4968,21 0 0 0 28400 21724 0 106 
4967,64 0 0 0 28785 21753 0 107 
4967,28 0 0 0 28763 21756 0 108 
4966,13 0 0 0 28434 21790 0 106 
4965,03 0 0 0 27781 21806 0 106 
4963,32 0 0 0 27290 21843 0 107 
4962,52 0 0 0 27018 21872 0 107 
4961,76 0 0 0 27126 21892 0 107 
4961,69 0 0 0 27596 21932 0 106 
4961,45 0 0 0 27325 21920 0 108 
4961,5 0 0 0 26813 21956 0 107 
4960,85 0 0 0 26754 21961 0 107 
4960,56 0 0 0 26644 21958 0 106 
4959,81 0 0 0 26128 21962 0 107 
4959,42 0 0 0 25556 21980 0 107 
4959,19 0 0 0 25478 21984 0 107 
4959,87 0 0 0 25323 21955 0 106 
4960,74 0 0 0 25477 21957 0 107 
4961,93 0 0 0 25443 21963 0 107 
4963,47 0 0 0 25202 21996 0 107 
4966,04 0 0 0 24824 22017 0 107 
4969,88 0 0 0 24278 22022 0 107 
4974,77 0 0 0 24117 22042 0 107 
4981,52 0 0 0 24122 22036 0 107 
4989,97 0 0 0 24276 22051 0 107 
5001,5 0 0 0 24440 22066 0 104 
5016,65 0 0 0 24292 22104 0 107 
5034,81 0 0 0 24006 22174 0 106 
5057,62 0 0 0 23648 22176 0 108 
5084,19 0 0 0 23386 22206 0 107 
5114,48 0 0 0 23709 22234 0 107 
5148,79 0 0 0 24080 22253 0 106 
5186,54 0 0 0 24260 22248 0 107 
5228,36 0 0 0 24384 22252 0 106 
5272,27 0 0 0 23768 22263 0 106 
5316,57 0 0 0 23554 22288 0 107 
5360,56 0 0 0 23493 22258 0 108 
5404,13 0 0 0 23440 22286 0 106 
5446,14 0 0 0 23448 22277 0 106 
5484,94 0 0 0 23354 22272 0 107 
5522,68 0 0 0 23240 22269 0 108 
5560,77 0 0 0 23384 22266 0 106 
5597,75 0 0 0 23453 22264 0 107 
5630,79 0 0 0 23609 22245 0 107 
5663,53 0 0 0 23701 22233 0 107 
5702,79 0 0 0 23656 22226 0 106 
5752,2 0 0 0 23705 22196 0 108 
5813,02 0 0 0 23935 22197 0 107 
0 0 0 0 24061 22166 0 106 
0 0 0 0 23860 22185 0 106 
0 0 0 0 23742 22150 0 105 
0 0 0 0 23772 22127 0 108 
0 0 0 0 23678 22082 0 106 
0 0 0 0 23550 22034 0 106 
0 0 0 0 23434 21997 0 107 
1621,67 0 0 0 23524 21960 0 107 
1924,37 0 0 0 23784 21897 0 106 
1953,29 0 0 0 23908 21828 0 107 
1972,81 0 0 0 23996 21773 0 108 
1981,67 0 0 0 23830 21718 0 107 
1985,92 0 0 0 23884 21640 0 107 
1986,48 0 0 0 24128 21557 0 107 
1983,34 0 0 0 24216 21484 0 107 
1976,3 0 0 0 24300 21406 0 108 
1691,19 0 0 0 24253 21307 0 107 
1673,6 0 0 0 24234 21222 0 106 
1650,27 0 0 0 24064 21146 0 107 
1617,41 0 0 0 24022 21099 0 107 
2105,65 0 0 0 23854 21016 0 107 
2072,48 0 0 0 23522 20926 0 106 
2045,73 0 0 0 23313 20869 0 108 
2021,57 0 0 0 23497 20796 0 108 
2002,33 0 0 0 24168 20756 0 106 
0 0 0 0 24694 20676 0 106 
0 0 0 0 24687 20628 0 109 
0 0 0 0 24536 20573 0 105 
0 0 0 0 24514 20525 0 106 
0 0 0 0 24404 20480 0 106 
0 0 0 0 24416 20405 0 107 
0 0 0 0 24579 20370 0 105 
5573,76 0 0 0 24953 20320 0 106 
5543,62 0 0 0 25042 20292 0 107 
5515,09 0 0 0 24790 20217 0 107 
5490,47 0 0 0 24484 20176 0 108 
5469,18 0 0 0 24197 20120 0 107 
5450,13 0 0 0 24148 20067 0 107 
5432,43 0 0 0 24211 20020 0 107 
5415,43 0 0 0 24397 19992 0 108 
5399,02 0 0 0 24699 19966 0 109 
5382,63 0 0 0 24895 19921 0 104 
5366,51 0 0 0 24748 19874 0 108 
5350,33 0 0 0 24171 19811 0 107 
5334,54 0 0 0 23559 19793 0 107 
5318,98 0 0 0 23799 19717 0 107 
5304,51 0 0 0 24368 19678 0 106 
5289,85 0 0 0 24729 19624 0 106 
5276,04 0 0 0 25089 19576 0 106 
5262,54 0 0 0 25124 19548 0 107 
5250,42 0 0 0 25046 19508 0 108 
5238,44 0 0 0 24918 19452 0 107 
5227,22 0 0 0 24636 19447 0 107 
5216,1 0 0 0 24404 19398 0 107 
5205,43 0 0 0 24640 19379 0 107 
5194,91 0 0 0 24772 19351 0 108 
5185,26 0 0 0 24609 19315 0 108 
5176,14 0 0 0 24746 19265 0 106 
5167,88 0 0 0 24851 19271 0 106 
5159,53 0 0 0 24800 19210 0 107 
5151,66 0 0 0 24557 19204 0 106 
5143,93 0 0 0 24331 19173 0 108 
5136,65 0 0 0 24208 19141 0 108 
5129,11 0 0 0 24698 19116 0 106 
5122,42 0 0 0 25161 19104 0 110 
5116,07 0 0 0 25341 19108 0 106 
5109,73 0 0 0 25195 19068 0 107 
5103,39 0 0 0 24648 19060 0 108 
5097,76 0 0 0 24644 19036 0 107 
5092,3 0 0 0 24756 19041 0 107 
5087,98 0 0 0 25024 19018 0 106 
5083,84 0 0 0 25172 19034 0 106 
5080,46 0 0 0 25136 19026 0 108 
5076,71 0 0 0 25054 19018 0 107 
5073,45 0 0 0 24798 19026 0 107 
5069,64 0 0 0 24352 19022 0 107 
5066,33 0 0 0 23965 19001 0 107 
5062,63 0 0 0 23694 19014 0 108 
5059,12 0 0 0 24075 19016 0 107 
5055,88 0 0 0 24674 19006 0 108 
5053,01 0 0 0 25033 18992 0 107 
5050,16 0 0 0 25238 18981 0 107 
5047,96 0 0 0 25046 18969 0 107 
5045,93 0 0 0 24886 18958 0 108 
5044,47 0 0 0 24653 18917 0 107 
5042,87 0 0 0 24716 18915 0 107 
5041,75 0 0 0 25053 18898 0 107 
5040,59 0 0 0 25028 18918 0 107 
5038,91 0 0 0 24770 18899 0 106 
5037,36 0 0 0 24523 18891 0 106 
5035,91 0 0 0 24451 18904 0 107 
5034,29 0 0 0 24648 18902 0 106 
5033,04 0 0 0 24536 18894 0 106 
5031,95 0 0 0 24433 18899 0 106 
5030,9 0 0 0 24774 18875 0 107 
5029,81 0 0 0 24880 18905 0 106 
5028,86 0 0 0 25145 18878 0 108 
5028,61 0 0 0 25155 18890 0 107 
5028,33 0 0 0 25130 18903 0 107 
5028,34 0 0 0 25056 18897 0 106 
5027,87 0 0 0 24914 18864 0 106 
5027,1 0 0 0 24776 18888 0 109 
5026,08 0 0 0 24895 18860 0 106 
5025,71 0 0 0 25067 18859 0 106 
5024,98 0 0 0 24932 18866 0 106 
5025,1 0 0 0 24834 18860 0 106 
5024,61 0 0 0 24548 18849 0 107 
5024,75 0 0 0 24164 18835 0 109 
5024,61 0 0 0 24221 18839 0 108 
5024,48 0 0 0 24353 18812 0 106 
5024,47 0 0 0 24612 18824 0 106 
5024,42 0 0 0 24863 18820 0 107 
5023,99 0 0 0 25272 18800 0 107 
5023,18 0 0 0 25345 18772 0 106 
5022,58 0 0 0 25310 18777 0 106 
5021,64 0 0 0 24812 18764 0 106 
5021,01 0 0 0 24396 18768 0 106 
5020,47 0 0 0 24297 18786 0 107 
5020,15 0 0 0 24505 18770 0 107 
5020,07 0 0 0 24981 18761 0 106 
5020,27 0 0 0 25434 18769 0 108 
5020,24 0 0 0 25590 18769 0 108 
5020,26 0 0 0 25503 18770 0 106 
5019,75 0 0 0 25164 18750 0 106 
5019,7 0 0 0 24754 18758 0 107 
5019,52 0 0 0 24320 18754 0 107 
5019,58 0 0 0 24203 18760 0 108 
5019,67 0 0 0 24454 18771 0 108 
5020,07 0 0 0 24739 18798 0 106 
5020,07 0 0 0 25030 18790 0 107 
5020,32 0 0 0 25034 18809 0 106 
5020,55 0 0 0 25067 18816 0 107 
5020,52 0 0 0 24860 18828 0 107 
5020,21 0 0 0 24645 18834 0 106 
5020 0 0 0 24678 18852 0 106 
5019,74 0 0 0 25058 18894 0 106 
5019,37 0 0 0 25422 18897 0 106 
5019,21 0 0 0 25650 18914 0 108 
5018,84 0 0 0 25380 18938 0 108 
5019,05 0 0 0 25127 18921 0 107 
5018,92 0 0 0 24694 18922 0 107 
5019,4 0 0 0 24486 18917 0 106 
5019,38 0 0 0 24862 18912 0 107 
5019,41 0 0 0 25381 18899 0 107 
5018,74 0 0 0 25286 18914 0 108 
5018,3 0 0 0 25372 18868 0 105 
5017,67 0 0 0 25506 18872 0 106 
5017,79 0 0 0 25268 18816 0 107 
5017,7 0 0 0 25140 18812 0 108 
5017,84 0 0 0 25082 18772 0 108 
5018,03 0 0 0 25367 18757 0 106 
5018,22 0 0 0 25013 18777 0 107 
5018,01 0 0 0 25156 18702 0 108 
5017,79 0 0 0 25528 18690 0 106 
5017,58 0 0 0 25368 18724 0 111 
5017,3 0 0 0 25109 18711 0 110 
5017,28 0 0 0 24822 18693 0 107 
5017,25 0 0 0 24502 18700 0 110 
5017,7 0 0 0 24811 18703 0 107 
5018,13 0 0 0 25380 18716 0 108 
5019,16 0 0 0 26041 18747 0 107 
5019,58 0 0 0 26309 18751 0 108 
5020,05 0 0 0 26146 18760 0 106 
5019,71 0 0 0 25525 18778 0 106 
5019,43 0 0 0 24806 18784 0 107 
5019,24 0 0 0 24546 18801 0 106 
5019,49 0 0 0 25064 18821 0 106 
5019,92 0 0 0 25514 18828 0 108 
5020,18 0 0 0 25612 18822 0 107 
5020,33 0 0 0 25492 18820 0 106 
5020,81 0 0 0 25404 18829 0 107 
5021,31 0 0 0 25280 18858 0 104 
5021,55 0 0 0 24945 18850 0 107 
5021,9 0 0 0 24869 18836 0 107 
5021,98 0 0 0 25016 18852 0 106 
5021,81 0 0 0 25150 18832 0 105 
5021,69 0 0 0 25648 18808 0 108 
5021,51 0 0 0 25927 18785 0 108 
5021,44 0 0 0 25879 18821 0 108 
5021,93 0 0 0 25776 18812 0 107 
5022,06 0 0 0 25370 18805 0 107 
5022,35 0 0 0 25043 18817 0 107 
5022,05 0 0 0 25122 18824 0 107 
5022,08 0 0 0 25238 18840 0 109 
5021,48 0 0 0 25457 18812 0 108 
5021,17 0 0 0 25609 18848 0 105 
5020,91 0 0 0 25606 18825 0 108 
5021,06 0 0 0 25304 18853 0 107 
5021,09 0 0 0 25079 18829 0 107 
5021,37 0 0 0 24863 18849 0 107 
5021,27 0 0 0 24871 18858 0 107 
5021,45 0 0 0 24953 18862 0 107 
5021,39 0 0 0 25044 18868 0 107 
5021,13 0 0 0 25051 18866 0 107 
5020,87 0 0 0 24849 18851 0 107 
5020,36 0 0 0 24466 18865 0 106 
5020,5 0 0 0 24340 18840 0 106 
5020,78 0 0 0 24158 18842 0 110 
5021,04 0 0 0 23928 18860 0 106 
5021,5 0 0 0 24475 18826 0 107 
5022,1 0 0 0 24923 18842 0 107 
5022,24 0 0 0 24894 18808 0 106 
5022,22 0 0 0 24722 18820 0 106 
5021,87 0 0 0 24442 18820 0 107 
5021,61 0 0 0 24193 18830 0 107 
5021,63 0 0 0 24081 18811 0 108 
5022,11 0 0 0 24229 18794 0 107 
5022,39 0 0 0 24759 18814 0 106 
5022,83 0 0 0 25410 18822 0 106 
5023,2 0 0 0 25682 18812 0 107 
5023,99 0 0 0 25436 18814 0 107 
5024,19 0 0 0 25112 18821 0 105 
5024,33 0 0 0 24871 18812 0 106 
5024,13 0 0 0 24679 18818 0 107 
5023,94 0 0 0 24958 18847 0 109 
5023,66 0 0 0 25768 18860 0 106 
5023,87 0 0 0 26806 18884 0 108 
5024,29 0 0 0 28005 18894 0 105 
5024,81 0 0 0 29497 18910 0 108 
5025,11 0 0 0 32083 18913 0 106 
5025,35 0 0 0 35095 18912 0 107 
5025,73 0 0 0 38744 18953 0 106 
5025,66 0 0 0 41622 18968 0 107 
5025,73 0 0 0 43192 18982 0 107 
5025,39 0 0 0 43626 18994 0 106 
5025,42 0 0 0 42926 19009 0 106 
5025,19 0 0 0 41312 19018 0 106 
5025,49 0 0 0 38843 19016 0 108 
5025,46 0 0 0 35356 19007 0 107 
5025,62 0 0 0 31689 19029 0 106 
5025,34 0 0 0 28158 19036 0 106 
5025,1 0 0 0 25687 18998 0 106 
5024,72 0 0 0 24240 19032 0 106 
5024,75 0 0 0 23410 18998 0 105 
5024,67 0 0 0 22793 18992 0 106 
5024,56 0 0 0 21957 18981 0 106 
5024,69 0 0 0 21333 18989 0 107 
5024,69 0 0 0 21414 18995 0 108 
5025,03 0 0 0 21866 18984 0 108 
5025,38 0 0 0 22224 18998 0 108 
5026 0 0 0 22614 18986 0 106 
5026,45 0 0 0 22568 18973 0 107 
5026,87 0 0 0 22579 18971 0 108 
5026,8 0 0 0 22522 19008 0 107 
5027,06 0 0 0 22235 18996 0 106 
5027,19 0 0 0 21770 19009 0 108 
5027,73 0 0 0 21389 19023 0 107 
5027,9 0 0 0 21501 19038 0 107 
5028,1 0 0 0 22270 19006 0 106 
5028,19 0 0 0 22908 19020 0 105 
5028,66 0 0 0 23123 19012 0 107 
5028,95 0 0 0 23016 19023 0 106 
5029,1 0 0 0 22805 19044 0 108 
5029,03 0 0 0 22527 19001 0 107 
5029,15 0 0 0 22725 19025 0 106 
5029,39 0 0 0 22825 19048 0 107 
5029,7 0 0 0 22976 19027 0 107 
5030,3 0 0 0 23096 19049 0 106 
5030,48 0 0 0 23128 19057 0 105 
5031,07 0 0 0 22859 19076 0 107 
5031,48 0 0 0 22716 19081 0 106 
5031,99 0 0 0 22649 19065 0 107 
5031,89 0 0 0 22558 19068 0 106 
5031,8 0 0 0 22649 19102 0 108 
5031,4 0 0 0 23188 19104 0 106 
5031,06 0 0 0 23633 19122 0 104 
5030,38 0 0 0 23763 19109 0 105 
5030,16 0 0 0 23571 19110 0 109 
5029,41 0 0 0 23259 19117 0 106 
5029,38 0 0 0 23058 19141 0 108 
5028,99 0 0 0 23064 19132 0 106 
5028,77 0 0 0 23277 19160 0 106 
5027,82 0 0 0 23584 19130 0 107 
5026,82 0 0 0 23793 19147 0 108 
5025,5 0 0 0 23622 19117 0 107 
5024,05 0 0 0 23451 19130 0 105 
5022,24 0 0 0 23472 19151 0 107 
5020,45 0 0 0 23607 19160 0 108 
5018,83 0 0 0 23633 19128 0 106 
5017,44 0 0 0 23912 19150 0 108 
5015,88 0 0 0 24161 19172 0 108 
5014,23 0 0 0 24348 19191 0 107 
5013,24 0 0 0 24262 19214 0 107 
5012,23 0 0 0 24165 19190 0 108 
5011,51 0 0 0 23779 19211 0 107 
5010,56 0 0 0 23367 19231 0 108 
5010,42 0 0 0 23375 19269 0 106 
5009,9 0 0 0 23622 19279 0 106 
5009,77 0 0 0 24190 19303 0 106 
5009,05 0 0 0 24638 19330 0 112 
5008,91 0 0 0 24782 19356 0 106 
5008,99 0 0 0 24744 19384 0 108 
5009,19 0 0 0 24352 19442 0 108 
5009,06 0 0 0 23937 19469 0 106 
5009,21 0 0 0 24127 19492 0 107 
5009,24 0 0 0 24452 19533 0 106 
5008,99 0 0 0 24878 19598 0 110 
5008,33 0 0 0 25122 19652 0 107 
5007,95 0 0 0 25234 19696 0 107 
5007,33 0 0 0 25164 19766 0 107 
5007,42 0 0 0 24763 19818 0 106 
5007,51 0 0 0 24426 19900 0 107 
5008,16 0 0 0 24485 19946 0 108 
5008,68 0 0 0 24760 20040 0 107 
5009,17 0 0 0 25035 20103 0 107 
5009,42 0 0 0 25424 20197 0 107 
5009,62 0 0 0 25313 20276 0 107 
5010,04 0 0 0 25172 20378 0 107 
5010,35 0 0 0 24931 20433 0 107 
5010,66 0 0 0 24912 20499 0 107 
5010,82 0 0 0 25166 20584 0 105 
5011,52 0 0 0 25382 20676 0 108 
5011,79 0 0 0 25658 20740 0 107 
5012,55 0 0 0 26075 20820 0 106 
5013,18 0 0 0 26200 20868 0 108 
5013,97 0 0 0 26128 20928 0 107 
5014,26 0 0 0 26096 20977 0 106 
5015,09 0 0 0 26009 21026 0 105 
5015,85 0 0 0 25982 21070 0 108 
5016,93 0 0 0 26242 21116 0 107 
5017,81 0 0 0 26512 21192 0 106 
5018,87 0 0 0 26826 21201 0 108 
5019,86 0 0 0 26870 21238 0 106 
5021,33 0 0 0 26274 21292 0 107 
5022,26 0 0 0 26182 21306 0 105 
5023,2 0 0 0 26482 21370 0 107 
5023,84 0 0 0 26899 21399 0 108 
5024,53 0 0 0 27334 21431 0 107 
5024,92 0 0 0 27683 21472 0 109 
5025,84 0 0 0 28260 21484 0 105 
5026,76 0 0 0 28566 21502 0 108 
5027,63 0 0 0 28390 21538 0 109 
5028,33 0 0 0 27923 21583 0 106 
5028,27 0 0 0 27662 21610 0 108 
5028,24 0 0 0 27591 21661 0 107 
5027,82 0 0 0 27930 21678 0 107 
5027,26 0 0 0 28499 21723 0 106 
5026,62 0 0 0 28876 21751 0 107 
5026,23 0 0 0 28826 21774 0 108 
5025,47 0 0 0 28506 21819 0 106 
5025,2 0 0 0 27943 21866 0 108 
5024,6 0 0 0 27521 21858 0 108 
5024,49 0 0 0 27402 21880 0 106 
5023,95 0 0 0 27705 21901 0 107 
5023,56 0 0 0 27957 21929 0 107 
5022,91 0 0 0 28146 21926 0 107 
5022,51 0 0 0 27602 21960 0 110 
5022,06 0 0 0 27237 21986 0 107 
5022,5 0 0 0 26698 21995 0 108 
5022,61 0 0 0 26348 22007 0 107 
5023,15 0 0 0 26424 22024 0 107 
5023,49 0 0 0 26403 22040 0 107 
5023,92 0 0 0 26196 22035 0 106 
5024,07 0 0 0 26183 22076 0 108 
5024,11 0 0 0 26054 22074 0 107 
5024,11 0 0 0 25640 22048 0 107 
5025,12 0 0 0 25088 22102 0 106 
5029,94 0 0 0 24624 22111 0 107 
5039 0 0 0 24265 22134 0 108 
5051,15 0 0 0 24350 22119 0 105 
5062,47 0 0 0 24541 22146 0 108 
5071,21 0 0 0 24464 22180 0 106 
5075,88 0 0 0 24246 22199 0 107 
5078,11 0 0 0 23981 22204 0 106 
5078,03 0 0 0 23797 22212 0 107 
5076,71 0 0 0 23729 22227 0 108 
5074,63 0 0 0 23610 22264 0 107 
5072,96 0 0 0 23593 22284 0 105 
5071,68 0 0 0 23916 22301 0 107 
5070,98 0 0 0 24124 22325 0 105 
5070,8 0 0 0 24108 22364 0 106 
5070,72 0 0 0 23701 22362 0 107 
5070,89 0 0 0 23396 22331 0 107 
5070,62 0 0 0 23277 22363 0 106 
5070,82 0 0 0 23310 22358 0 108 
5070,87 0 0 0 23374 22392 0 108 
5071,07 0 0 0 23798 22362 0 109 
5070,97 0 0 0 24123 22371 0 110 
5071,55 0 0 0 24102 22344 0 106 
5071,91 0 0 0 23869 22367 0 106 
5072,45 0 0 0 23490 22381 0 106 
5072,96 0 0 0 23349 22372 0 107 
5073,78 0 0 0 23557 22356 0 107 
5074,12 0 0 0 23738 22370 0 108 
5074,34 0 0 0 23968 22339 0 110 
5074,63 0 0 0 24073 22312 0 110 
5075,19 0 0 0 23780 22324 0 106 
5076,11 0 0 0 23259 22277 0 106 
5077,07 0 0 0 23228 22271 0 108 
5078,1 0 0 0 23228 22236 0 108 
5078,69 0 0 0 23201 22215 0 107 
5079,46 0 0 0 23470 22166 0 107 
5079,47 0 0 0 23996 22142 0 107 
5079,63 0 0 0 24170 22096 0 99 
5078,96 0 0 0 24090 22040 0 107 
5078,79 0 0 0 24030 22001 0 107 
5077,83 0 0 0 23937 21936 0 106 
5077,16 0 0 0 24116 21867 0 106 
5076,43 0 0 0 23918 21813 0 106 
5075,83 0 0 0 23848 21707 0 107 
5075,01 0 0 0 24283 21627 0 108 
5074,27 0 0 0 24600 21534 0 107 
5073,3 0 0 0 24505 21460 0 107 
5072,2 0 0 0 24126 21363 0 108 
5071,21 0 0 0 23562 21287 0 107 
5070,17 0 0 0 23615 21188 0 107 
5069,26 0 0 0 23918 21100 0 104 
5068,4 0 0 0 24118 21012 0 106 
5067,67 0 0 0 24202 20918 0 107 
5066,88 0 0 0 24284 20834 0 104 
5066,12 0 0 0 24327 20738 0 107 
5065,19 0 0 0 24274 20669 0 106 
5064,26 0 0 0 23789 20624 0 107 
5063,01 0 0 0 23567 20568 0 106 
5062,07 0 0 0 23698 20467 0 107 
5060,48 0 0 0 23952 20437 0 106 
5059,11 0 0 0 24412 20400 0 108 
5057,14 0 0 0 24644 20344 0 106 
5055,65 0 0 0 24777 20304 0 107 
5054,22 0 0 0 24570 20304 0 106 
5053,67 0 0 0 24267 20274 0 107 
5053,29 0 0 0 23980 20265 0 106 
5053,79 0 0 0 24329 20247 0 106 
5053,91 0 0 0 24676 20240 0 106 
5054,37 0 0 0 24730 20226 0 108 
5054,68 0 0 0 24918 20178 0 107 
5054,78 0 0 0 24977 20167 0 107 
5054,73 0 0 0 24890 20151 0 107 
5054,72 0 0 0 24368 20111 0 107 
5055,06 0 0 0 24554 20101 0 107 
5055,38 0 0 0 24892 20068 0 107 
5055,64 0 0 0 25168 20051 0 107 
5055,63 0 0 0 25273 20010 0 107 
5056,28 0 0 0 24736 19959 0 107 
5056,81 0 0 0 24266 19930 0 107 
5057,46 0 0 0 24325 19890 0 109 
5057,72 0 0 0 24368 19852 0 108 
5057,86 0 0 0 24385 19809 0 106 
5058,15 0 0 0 24274 19778 0 108 
5058,54 0 0 0 24458 19766 0 107 
5058,79 0 0 0 24828 19688 0 107 
5059,54 0 0 0 25059 19654 0 105 
5060,4 0 0 0 25033 19608 0 106 
5061,4 0 0 0 24813 19590 0 106 
5062,1 0 0 0 24671 19549 0 108 
5062,6 0 0 0 24486 19536 0 108 
5062,44 0 0 0 24657 19501 0 107 
5062,31 0 0 0 24866 19458 0 107 
5062,41 0 0 0 25178 19458 0 107 
5062,88 0 0 0 25304 19435 0 110 
5063,37 0 0 0 25232 19384 0 106 
5063,61 0 0 0 25161 19360 0 108 
5063,83 0 0 0 24769 19347 0 107 
5063,84 0 0 0 24700 19312 0 107 
5064,29 0 0 0 24821 19288 0 107 
5064,27 0 0 0 25103 19259 0 107 
5064,51 0 0 0 25402 19256 0 106 
5064,34 0 0 0 25581 19220 0 104 
5064,29 0 0 0 25546 19212 0 106 
5064,07 0 0 0 25342 19188 0 106 
5064,4 0 0 0 24877 19154 0 106 
5064,36 0 0 0 24442 19110 0 107 
5064,65 0 0 0 24344 19117 0 107 
5064,83 0 0 0 24684 19090 0 105 
5065,07 0 0 0 25100 19034 0 106 
5064,71 0 0 0 25278 19053 0 106 
5064,22 0 0 0 25560 19026 0 107 
5063,56 0 0 0 25143 19033 0 108 
5063,27 0 0 0 24827 19027 0 107 
5063,02 0 0 0 24557 19012 0 108 
5062,87 0 0 0 24345 18988 0 108 
5062,7 0 0 0 24361 19004 0 107 
5062,28 0 0 0 24818 18969 0 107 
5062,35 0 0 0 25072 18960 0 107 
5062,14 0 0 0 25026 18960 0 106 
5061,71 0 0 0 24904 18945 0 106 
5060,69 0 0 0 24563 18900 0 107 
5059,95 0 0 0 24406 18910 0 111 
5058,81 0 0 0 24578 18890 0 106 
5057,68 0 0 0 24754 18912 0 107 
5055,72 0 0 0 25069 18894 0 108 
5053,25 0 0 0 25170 18902 0 107 
5049,55 0 0 0 25344 18895 0 108 
5044,67 0 0 0 25609 18896 0 107 
5038,89 0 0 0 25298 18877 0 108 
5033,45 0 0 0 24875 18862 0 108 
5028,96 0 0 0 24922 18845 0 106 
5026,49 0 0 0 25045 18825 0 106 
5024,88 0 0 0 25253 18842 0 106 
5024,43 0 0 0 25378 18839 0 106 
5024,42 0 0 0 25280 18857 0 106 
5024,92 0 0 0 25088 18863 0 108 
5026,04 0 0 0 24994 18864 0 106 
5027,19 0 0 0 25044 18865 0 106 
5028,37 0 0 0 25071 18866 0 109 
5028,8 0 0 0 25194 18884 0 108 
5029,08 0 0 0 25601 18897 0 107 
5028,82 0 0 0 25806 18893 0 107 
5028,82 0 0 0 25927 18890 0 106 
5028,55 0 0 0 25555 18851 0 106 
5028,75 0 0 0 25291 18865 0 107 
5028,86 0 0 0 25037 18842 0 106 
5029,07 0 0 0 24774 18824 0 109 
5029,41 0 0 0 24588 18802 0 108 
5029,88 0 0 0 24640 18781 0 107 
5030,17 0 0 0 24920 18787 0 106 
5030,76 0 0 0 25003 18761 0 107 
5030,91 0 0 0 25090 18751 0 108 
5030,94 0 0 0 24940 18769 0 106 
5030,85 0 0 0 24828 18745 0 106 
5031,09 0 0 0 24928 18762 0 109 
5031,04 0 0 0 25509 18759 0 107 
5031,54 0 0 0 25934 18764 0 108 
5032,09 0 0 0 26210 18792 0 108 
5032,97 0 0 0 26136 18821 0 107 
5034,07 0 0 0 25678 18862 0 107 
5035,05 0 0 0 25245 18872 0 106 
5035,68 0 0 0 24827 18893 0 106 
5035,92 0 0 0 24586 18891 0 107 
5036,01 0 0 0 24775 18940 0 107 
5035,94 0 0 0 25268 18928 0 108 
5036,35 0 0 0 25594 18966 0 105 
5037,4 0 0 0 25625 18966 0 107 
5039,1 0 0 0 25406 18965 0 107 
5040,92 0 0 0 25020 18984 0 108 
5042,98 0 0 0 24688 18991 0 107 
5045,1 0 0 0 24490 18983 0 107 
5047,33 0 0 0 24752 18958 0 107 
5048,59 0 0 0 25204 18952 0 106 
5050,09 0 0 0 25664 18970 0 106 
5051,26 0 0 0 25964 18984 0 107 
5052,8 0 0 0 25959 18970 0 108 
5053,82 0 0 0 25628 18943 0 108 
5054,92 0 0 0 25573 18954 0 107 
5055,69 0 0 0 25424 18926 0 107 
5056,73 0 0 0 25328 18946 0 106 
5057,93 0 0 0 25734 18963 0 108 
5059,7 0 0 0 25997 18929 0 105 
5061,41 0 0 0 25799 18922 0 106 
5063,6 0 0 0 25379 18897 0 106 
5067,06 0 0 0 24789 18873 0 107 
5074,15 0 0 0 24702 18892 0 106 
5087,95 0 0 0 24996 18883 0 107 
5106,7 0 0 0 25502 18849 0 106 
5128,28 0 0 0 26058 18842 0 107 
5148,76 0 0 0 26392 18887 0 106 
5166,6 0 0 0 26313 18858 0 107 
5182,05 0 0 0 26054 18859 0 108 
5195,76 0 0 0 25556 18855 0 107 
5210,35 0 0 0 25668 18854 0 107 
5226,41 0 0 0 25606 18872 0 107 
5244,61 0 0 0 25512 18864 0 106 
5262,37 0 0 0 25480 18866 0 106 
5280,45 0 0 0 25566 18872 0 107 
5297,88 0 0 0 25372 18848 0 107 
5314,9 0 0 0 25160 18863 0 106 
5332,47 0 0 0 25012 18849 0 107 
5348,79 0 0 0 24984 18880 0 107 
5363,14 0 0 0 25000 18852 0 108 
5373,74 0 0 0 24796 18864 0 107 
5381,09 0 0 0 25216 18853 0 107 
5385,81 0 0 0 25692 18842 0 109 
5388,68 0 0 0 25782 18860 0 107 
5389,8 0 0 0 25701 18814 0 106 
5389,85 0 0 0 25190 18830 0 107 
5388,54 0 0 0 25034 18830 0 107 
5385,46 0 0 0 25086 18828 0 107 
5380,97 0 0 0 25544 18822 0 105 
5376,07 0 0 0 25746 18824 0 108 
5371,04 0 0 0 25680 18855 0 106 
5365,55 0 0 0 25593 18836 0 107 
5359,42 0 0 0 25600 18840 0 108 
5352,71 0 0 0 25317 18838 0 107 
5345,22 0 0 0 25211 18843 0 107 
5337,23 0 0 0 25251 18876 0 107 
5329,21 0 0 0 25254 18876 0 107 
5321,91 0 0 0 25634 18881 0 107 
5314,89 0 0 0 25647 18875 0 106 
5307,76 0 0 0 25541 18883 0 107 
5300,15 0 0 0 25304 18915 0 106 
5292,56 0 0 0 24825 18922 0 107 
5284,79 0 0 0 24418 18867 0 107 
5276,74 0 0 0 24364 18890 0 107 
5268,05 0 0 0 24467 18890 0 106 
5259,05 0 0 0 24786 18864 0 107 
5249,65 0 0 0 25231 18851 0 107 
5240,7 0 0 0 25378 18829 0 106 
5231,92 0 0 0 25304 18861 0 107 
5223,67 0 0 0 25068 18840 0 108 
5215,53 0 0 0 24788 18837 0 108 
5207,99 0 0 0 24793 18866 0 106 
5200,71 0 0 0 24869 18874 0 107 
5194,22 0 0 0 25084 18900 0 107 
5187,66 0 0 0 25303 18928 0 107 
5181,48 0 0 0 25302 18928 0 107 
5175,07 0 0 0 25114 18944 0 108 
5169,22 0 0 0 24910 18952 0 108 
5163,6 0 0 0 24552 18976 0 105 
5158,74 0 0 0 24369 18960 0 108 
5153,79 0 0 0 24523 18993 0 107 
5149,54 0 0 0 25594 18967 0 107 
5145,28 0 0 0 27062 18967 0 109 
5141,63 0 0 0 28981 18953 0 106 
5137,76 0 0 0 31810 18948 0 107 
5134,14 0 0 0 34602 18920 0 107 
5130,17 0 0 0 37596 18929 0 106 
5126,43 0 0 0 40668 18919 0 106 
5123,12 0 0 0 42617 18927 0 107 
5120,26 0 0 0 43611 18929 0 106 
5117,5 0 0 0 43270 18916 0 106 
5115,11 0 0 0 41636 18950 0 107 
5112,72 0 0 0 38772 18928 0 106 
5110,69 0 0 0 35108 18922 0 107 
5108,52 0 0 0 31561 18928 0 107 
5106,13 0 0 0 28374 18964 0 106 
5103,85 0 0 0 25665 18948 0 108 
5101,2 0 0 0 23837 18976 0 108 
5099,07 0 0 0 22510 18965 0 107 
5096,99 0 0 0 21465 18975 0 107 
5095,78 0 0 0 20792 18978 0 107 
5094,43 0 0 0 20691 19002 0 107 
5093,4 0 0 0 21246 18983 0 107 
5092,44 0 0 0 21862 18995 0 108 
5091,74 0 0 0 22175 19008 0 106 
5090,86 0 0 0 22866 19018 0 107 
5090,24 0 0 0 23258 19011 0 108 
5089,41 0 0 0 22962 19033 0 107 
5088,66 0 0 0 22624 19071 0 106 
5087,48 0 0 0 22317 19070 0 109 
5086,04 0 0 0 22234 19062 0 107 
5084,34 0 0 0 22319 19068 0 107 
5082,94 0 0 0 22604 19087 0 107 
5081,42 0 0 0 22842 19080 0 109 
5080 0 0 0 22633 19080 0 100 
5078,64 0 0 0 23084 19095 0 108 
5077,39 0 0 0 23314 19094 0 107 
5076,2 0 0 0 22954 19113 0 106 
5074,84 0 0 0 22844 19106 0 107 
5072,92 0 0 0 22852 19136 0 107 
5070,44 0 0 0 22865 19138 0 112 
5068,08 0 0 0 23063 19160 0 108 
5066,1 0 0 0 23337 19142 0 106 
5064,09 0 0 0 23684 19131 0 107 
5061,91 0 0 0 23682 19141 0 107 
5059,57 0 0 0 23221 19120 0 107 
5057,53 0 0 0 22664 19108 0 111 
5054,91 0 0 0 22774 19096 0 106 
5053,23 0 0 0 23052 19090 0 106 
5051,75 0 0 0 23509 19064 0 106 
5050,91 0 0 0 23800 19077 0 109 
5049,92 0 0 0 24006 19072 0 108 
5048,83 0 0 0 23673 19066 0 106 
5047,18 0 0 0 23297 19076 0 108 
5045,73 0 0 0 23244 19040 0 106 
5043,83 0 0 0 23486 19064 0 107 
5042,26 0 0 0 23782 19080 0 107 
5040,14 0 0 0 23972 19091 0 107 
5038,34 0 0 0 23950 19072 0 107 
5036,54 0 0 0 24024 19091 0 107 
5035,16 0 0 0 23717 19112 0 107 
5033,68 0 0 0 23497 19115 0 106 
5032,95 0 0 0 23450 19134 0 106 
5031,97 0 0 0 23619 19120 0 108 
5031,48 0 0 0 23790 19148 0 107 
5030,54 0 0 0 24003 19157 0 107 
5029,83 0 0 0 23942 19145 0 106 
5028,39 0 0 0 23976 19172 0 108 
5027,13 0 0 0 23807 19133 0 107 
5025,59 0 0 0 23745 19178 0 106 
5024,41 0 0 0 23701 19155 0 109 
5023,23 0 0 0 23735 19169 0 106 
5022,32 0 0 0 23987 19181 0 106 
5021,47 0 0 0 24293 19178 0 107 
5021,03 0 0 0 24500 19196 0 106 
5020,63 0 0 0 24562 19184 0 108 
5020,38 0 0 0 23997 19229 0 106 
5019,87 0 0 0 23755 19238 0 106 
5019,11 0 0 0 23796 19232 0 107 
5018,4 0 0 0 23852 19275 0 106 
5017,68 0 0 0 24340 19301 0 107 
5016,96 0 0 0 24908 19357 0 106 
5016,39 0 0 0 25256 19400 0 108 
5016,68 0 0 0 25258 19437 0 107 
5016,72 0 0 0 24618 19497 0 106 
5017,43 0 0 0 24054 19540 0 108 
5018,19 0 0 0 23774 19641 0 107 
5019,64 0 0 0 23881 19699 0 107 
5021,74 0 0 0 24240 19771 0 107 
5024,81 0 0 0 24876 19876 0 106 
5028 0 0 0 25417 19941 0 107 
5031,93 0 0 0 25503 20043 0 107 
5036,37 0 0 0 25148 20134 0 108 
5042,65 0 0 0 24581 20208 0 108 
5050,96 0 0 0 24601 20287 0 107 
5061,81 0 0 0 24821 20396 0 107 
5075,11 0 0 0 25176 20489 0 108 
5091,5 0 0 0 25560 20572 0 106 
5111,04 0 0 0 25807 20670 0 106 
5133,24 0 0 0 25715 20744 0 107 
5158,28 0 0 0 25451 20821 0 106 
5187,29 0 0 0 25488 20887 0 107 
5220,86 0 0 0 25616 20942 0 106 
5258,75 0 0 0 25784 21034 0 107 
5300,29 0 0 0 25977 21085 0 108 
5347,8 0 0 0 26208 21134 0 108 
5401,39 0 0 0 26392 21198 0 109 
5458,25 0 0 0 26336 21191 0 106 
5513,84 0 0 0 26284 21250 0 106 
5564,81 0 0 0 26308 21295 0 107 
5613,9 0 0 0 26282 21309 0 108 
5662,2 0 0 0 26510 21352 0 106 
5705,55 0 0 0 27050 21367 0 107 
5748,83 0 0 0 27767 21408 0 108 
5799,68 0 0 0 28070 21426 0 107 
5869,31 0 0 0 28197 21418 0 108 
0 0 0 0 27706 21483 0 107 
0 0 0 0 27152 21477 0 107 
0 0 0 0 26827 21513 0 106 
0 0 0 0 26940 21543 0 108 
0 0 0 0 27248 21574 0 107 
0 0 0 0 27574 21586 0 106 
1720,27 0 0 0 27771 21604 0 107 
2064,91 0 0 0 27568 21639 0 107 
2133,8 0 0 0 27268 21650 0 107 
2193,6 0 0 0 27037 21684 0 108 
2255,87 0 0 0 27040 21716 0 108 
2317,47 0 0 0 27310 21726 0 108 
2372,87 0 0 0 27576 21767 0 107 
0 0 0 0 27895 21779 0 107 
0 0 0 0 27988 21795 0 110 
0 0 0 0 27712 21813 0 106 
0 0 0 0 27203 21800 0 108 
0 0 0 0 26378 21831 0 107 
0 0 0 0 25734 21861 0 107 
0 0 0 0 25510 21856 0 106 
0 0 0 0 25596 21860 0 107 
0 0 0 0 25906 21883 0 107 
0 0 0 0 26079 21871 0 106 
0 0 0 0 25699 21882 0 108 
0 0 0 0 24764 21860 0 107 
0 0 0 0 24017 21848 0 106 
0 0 0 0 23897 21865 0 105 
2267,53 0 0 0 23741 21874 0 108 
2219,16 0 0 0 23901 21864 0 106 
2173,98 0 0 0 24020 21884 0 108 
2129,55 0 0 0 24389 21859 0 108 
2086,02 0 0 0 24294 21885 0 107 
2040,71 0 0 0 23908 21900 0 106 
1997,38 0 0 0 23530 21913 0 107 
1957,91 0 0 0 23285 21917 0 107 
1918,8 0 0 0 23246 21924 0 108 
2147,76 0 0 0 23098 21927 0 107 
2116,43 0 0 0 23223 21978 0 106 
0 0 0 0 23369 21988 0 108 
0 0 0 0 23238 21990 0 106 
0 0 0 0 22770 22045 0 107 
0 0 0 0 22108 22085 0 108 
0 0 0 0 21938 22075 0 106 
0 0 0 0 22324 22122 0 109 
5724,16 0 0 0 22924 22128 0 107 
5690,67 0 0 0 23584 22140 0 108 
5660,03 0 0 0 23828 22171 0 106 
5631,45 0 0 0 23722 22183 0 106 
5606,15 0 0 0 23376 22218 0 109 
5585,42 0 0 0 23075 22206 0 110 
5566,38 0 0 0 22999 22213 0 107 
5549,76 0 0 0 22403 22222 0 108 
